             #Energy(eV)         XX(1/Omega/m/s)         YY(1/Omega/m/s)         ZZ(1/Omega/m/s)    Average(1/Omega/m/s)
     -0.200000000000E+01      0.390821660157E+20      0.487135984704E+20      0.584753990709E+20      0.487570545190E+20
     -0.199599599600E+01      0.402491386282E+20      0.498502305725E+20      0.595779591927E+20      0.498924427978E+20
     -0.199199199199E+01      0.414560717934E+20      0.510026848474E+20      0.606729653677E+20      0.510439073362E+20
     -0.198798798799E+01      0.427004814557E+20      0.521701642947E+20      0.617612074583E+20      0.522106177362E+20
     -0.198398398398E+01      0.439788912670E+20      0.533510472961E+20      0.628428320088E+20      0.533909235239E+20
     -0.197997997998E+01      0.452868953748E+20      0.545428931363E+20      0.639173018019E+20      0.545823634376E+20
     -0.197597597598E+01      0.466192550129E+20      0.557424892276E+20      0.649833889389E+20      0.557817110598E+20
     -0.197197197197E+01      0.479700178937E+20      0.569459296297E+20      0.660391973085E+20      0.569850482773E+20
     -0.196796796797E+01      0.493326474679E+20      0.581487105688E+20      0.670822086343E+20      0.581878555570E+20
     -0.196396396396E+01      0.507001500539E+20      0.593458292518E+20      0.681093456150E+20      0.593851083069E+20
     -0.195995995996E+01      0.520651912356E+20      0.605318767670E+20      0.691170458665E+20      0.605713712897E+20
     -0.195595595596E+01      0.534201974225E+20      0.617011219698E+20      0.701013411113E+20      0.617408868345E+20
     -0.195195195195E+01      0.547574424297E+20      0.628475881055E+20      0.710579370277E+20      0.628876558543E+20
     -0.194794794795E+01      0.560691212534E+20      0.639651256225E+20      0.719822902109E+20      0.640055123623E+20
     -0.194394394394E+01      0.573474138398E+20      0.650474832009E+20      0.728696798832E+20      0.650881923080E+20
     -0.193993993994E+01      0.585845414299E+20      0.660883762823E+20      0.737152734599E+20      0.661293970574E+20
     -0.193593593594E+01      0.597728181741E+20      0.670815507804E+20      0.745141868690E+20      0.671228519412E+20
     -0.193193193193E+01      0.609047017824E+20      0.680208407831E+20      0.752615423965E+20      0.680623616540E+20
     -0.192792792793E+01      0.619728487219E+20      0.689002227171E+20      0.759525283164E+20      0.689418665852E+20
     -0.192392392392E+01      0.629701808232E+20      0.697138727420E+20      0.765824651675E+20      0.697555062442E+20
     -0.191991991992E+01      0.638899699305E+20      0.704562366314E+20      0.771468829923E+20      0.704976965181E+20
     -0.191591591592E+01      0.647259448671E+20      0.711221204236E+20      0.776416122591E+20      0.711632258499E+20
     -0.191191191191E+01      0.654724208853E+20      0.717068057013E+20      0.780628889791E+20      0.717473718552E+20
     -0.190790790791E+01      0.661244471137E+20      0.722061870773E+20      0.784074721952E+20      0.722460354621E+20
     -0.190390390390E+01      0.666779636575E+20      0.726169235439E+20      0.786727699050E+20      0.726558857021E+20
     -0.189989989990E+01      0.671299578548E+20      0.729365915860E+20      0.788569676209E+20      0.729745056872E+20
     -0.189589589590E+01      0.674786088958E+20      0.731638269780E+20      0.789591520597E+20      0.732005293112E+20
     -0.189189189189E+01      0.677234110682E+20      0.732984434438E+20      0.789794208037E+20      0.733337584385E+20
     -0.188788788789E+01      0.678652675734E+20      0.733415187245E+20      0.789189674049E+20      0.733752512342E+20
     -0.188388388388E+01      0.679065486169E+20      0.732954410637E+20      0.787801308005E+20      0.733273734937E+20
     -0.187987987988E+01      0.678511091787E+20      0.731639112615E+20      0.785663987041E+20      0.731938063815E+20
     -0.187587587588E+01      0.677042636911E+20      0.729518974613E+20      0.782823572732E+20      0.729795061418E+20
     -0.187187187187E+01      0.674727170319E+20      0.726655421717E+20      0.779335837706E+20      0.726906143247E+20
     -0.186786786787E+01      0.671644538175E+20      0.723120239797E+20      0.775264845377E+20      0.723343207783E+20
     -0.186386386386E+01      0.667885906676E+20      0.718993798132E+20      0.770680863381E+20      0.719186856063E+20
     -0.185985985986E+01      0.663551984324E+20      0.714362968964E+20      0.765657939644E+20      0.714524297644E+20
     -0.185585585586E+01      0.658751028309E+20      0.709318859664E+20      0.760271301470E+20      0.709447063148E+20
     -0.185185185185E+01      0.653596722908E+20      0.703954483579E+20      0.754594750211E+20      0.704048652233E+20
     -0.184784784785E+01      0.648206010415E+20      0.698362490720E+20      0.748698218498E+20      0.698422239878E+20
     -0.184384384384E+01      0.642696939748E+20      0.692633061899E+20      0.742645637504E+20      0.692658546384E+20
     -0.183983983984E+01      0.637186578557E+20      0.686852044513E+20      0.736493231703E+20      0.686843951591E+20
     -0.183583583584E+01      0.631789014908E+20      0.681099379802E+20      0.730288320231E+20      0.681058904980E+20
     -0.183183183183E+01      0.626613457363E+20      0.675447843250E+20      0.724068659477E+20      0.675376653364E+20
     -0.182782782783E+01      0.621762429453E+20      0.669962093769E+20      0.717862314084E+20      0.669862279102E+20
     -0.182382382382E+01      0.617330047835E+20      0.664698004502E+20      0.711687999092E+20      0.664572017143E+20
     -0.181981981982E+01      0.613400374323E+20      0.659702230698E+20      0.705555801737E+20      0.659552802253E+20
     -0.181581581582E+01      0.610045841458E+20      0.655011961138E+20      0.699468174097E+20      0.654841992231E+20
     -0.181181181181E+01      0.607325769329E+20      0.650654802467E+20      0.693421090352E+20      0.650467220716E+20
     -0.180780780781E+01      0.605285015527E+20      0.646648761752E+20      0.687405282520E+20      0.646446353266E+20
     -0.180380380380E+01      0.603952825674E+20      0.643002318957E+20      0.681407498895E+20      0.642787547842E+20
     -0.179979979980E+01      0.603341971734E+20      0.639714610563E+20      0.675411760290E+20      0.639489447529E+20
     -0.179579579580E+01      0.603448272297E+20      0.636775768398E+20      0.669400611699E+20      0.636541550798E+20
     -0.179179179179E+01      0.604250578034E+20      0.634167465156E+20      0.663356375896E+20      0.633924806362E+20
     -0.178778778779E+01      0.605711276142E+20      0.631863705950E+20      0.657262410025E+20      0.631612464039E+20
     -0.178378378378E+01      0.607777324025E+20      0.629831876020E+20      0.651104349671E+20      0.629571183239E+20
     -0.177977977978E+01      0.610381772689E+20      0.628034016065E+20      0.644871302483E+20      0.627762363746E+20
     -0.177577577578E+01      0.613445693625E+20      0.626428258604E+20      0.638556931466E+20      0.626143627898E+20
     -0.177177177177E+01      0.616880387390E+20      0.624970329966E+20      0.632160352102E+20      0.624670356486E+20
     -0.176776776777E+01      0.620589733152E+20      0.623615008550E+20      0.625686762220E+20      0.623297167974E+20
     -0.176376376376E+01      0.624472538095E+20      0.622317432748E+20      0.619147731774E+20      0.621979234206E+20
     -0.175975975976E+01      0.628424763088E+20      0.621034170436E+20      0.612561102053E+20      0.620673345192E+20
     -0.175575575576E+01      0.632341532613E+20      0.619723993110E+20      0.605950477955E+20      0.619338667893E+20
     -0.175175175175E+01      0.636118877239E+20      0.618348336910E+20      0.599344338043E+20      0.617937184064E+20
     -0.174774774775E+01      0.639655199321E+20      0.616871474062E+20      0.592774828440E+20      0.616433833941E+20
     -0.174374374374E+01      0.642852490790E+20      0.615260455363E+20      0.586276341320E+20      0.614796429158E+20
     -0.173973973974E+01      0.645617360953E+20      0.613484911893E+20      0.579884001390E+20      0.612995424745E+20
     -0.173573573574E+01      0.647861949512E+20      0.611516818448E+20      0.573632191637E+20      0.611003653199E+20
     -0.173173173173E+01      0.649504805013E+20      0.609330321465E+20      0.567553242778E+20      0.608796123085E+20
     -0.172772772773E+01      0.650471802702E+20      0.606901721269E+20      0.561676391425E+20      0.606349971799E+20
     -0.172372372372E+01      0.650697160292E+20      0.604209675145E+20      0.556027083053E+20      0.603644639497E+20
     -0.171971971972E+01      0.650124587595E+20      0.601235657366E+20      0.550626660368E+20      0.600662301776E+20
     -0.171571571572E+01      0.648708578990E+20      0.597964678924E+20      0.545492439360E+20      0.597388565758E+20
     -0.171171171171E+01      0.646415828955E+20      0.594386237300E+20      0.540638138105E+20      0.593813401453E+20
     -0.170770770771E+01      0.643226723133E+20      0.590495438747E+20      0.536074592131E+20      0.589932251337E+20
     -0.170370370370E+01      0.639136832895E+20      0.586294214441E+20      0.531810668954E+20      0.585747238763E+20
     -0.169969969970E+01      0.634158321170E+20      0.581792537923E+20      0.527854285231E+20      0.581268381441E+20
     -0.169569569570E+01      0.628321152166E+20      0.577009543998E+20      0.524213431958E+20      0.576514709374E+20
     -0.169169169169E+01      0.621673987921E+20      0.571974447589E+20      0.520897122897E+20      0.571515186136E+20
     -0.168768768769E+01      0.614284651819E+20      0.566727165155E+20      0.517916195001E+20      0.566309337325E+20
     -0.168368368368E+01      0.606240045477E+20      0.561318551922E+20      0.515283904517E+20      0.560947500638E+20
     -0.167967967968E+01      0.597645423498E+20      0.555810186900E+20      0.513016278098E+20      0.555490629499E+20
     -0.167567567568E+01      0.588622962305E+20      0.550273664860E+20      0.511132195910E+20      0.550009607692E+20
     -0.167167167167E+01      0.579309604620E+20      0.544789389345E+20      0.509653204509E+20      0.544584066158E+20
     -0.166766766767E+01      0.569854217521E+20      0.539444900802E+20      0.508603081171E+20      0.539300733165E+20
     -0.166366366366E+01      0.560414163637E+20      0.534332815097E+20      0.508007196271E+20      0.534251391668E+20
     -0.165965965966E+01      0.551151443871E+20      0.529548485081E+20      0.507891742373E+20      0.529530557108E+20
     -0.165565565566E+01      0.542228616773E+20      0.525187526404E+20      0.508282913522E+20      0.525233018900E+20
     -0.165165165165E+01      0.533804725907E+20      0.521343363626E+20      0.509206122103E+20      0.521451403879E+20
     -0.164764764765E+01      0.526031467243E+20      0.518104951012E+20      0.510685332337E+20      0.518273916864E+20
     -0.164364364364E+01      0.519049803763E+20      0.515554804044E+20      0.512742570611E+20      0.515782392806E+20
     -0.163963963964E+01      0.512987188964E+20      0.513767445309E+20      0.515397647667E+20      0.514050760647E+20
     -0.163563563564E+01      0.507955503107E+20      0.512808327268E+20      0.518668101564E+20      0.513143977313E+20
     -0.163163163163E+01      0.504049744702E+20      0.512733250037E+20      0.522569347570E+20      0.513117447436E+20
     -0.162762762763E+01      0.501347462162E+20      0.513588250122E+20      0.527115003861E+20      0.514016905382E+20
     -0.162362362362E+01      0.499908861626E+20      0.515409900082E+20      0.532317349343E+20      0.515878703684E+20
     -0.161961961962E+01      0.499777489221E+20      0.518225932291E+20      0.538187859980E+20      0.518730427164E+20
     -0.161561561562E+01      0.500981361161E+20      0.522056084169E+20      0.544737760909E+20      0.522591735413E+20
     -0.161161161161E+01      0.503534403210E+20      0.526913057664E+20      0.551978523455E+20      0.527475328110E+20
     -0.160760760761E+01      0.507438061275E+20      0.532803490925E+20      0.559922231511E+20      0.533387927904E+20
     -0.160360360360E+01      0.512682954553E+20      0.539728851755E+20      0.568581744426E+20      0.540331183578E+20
     -0.159959959960E+01      0.519250457961E+20      0.547686177483E+20      0.577970596952E+20      0.548302410799E+20
     -0.159559559560E+01      0.527114118528E+20      0.556668602437E+20      0.588102601712E+20      0.557295107559E+20
     -0.159159159159E+01      0.536240829809E+20      0.566665632874E+20      0.598991153549E+20      0.567299205411E+20
     -0.158758758759E+01      0.546591710340E+20      0.577663151509E+20      0.610648272100E+20      0.578301044649E+20
     -0.158358358358E+01      0.558122658613E+20      0.589643160352E+20      0.623083451602E+20      0.590283090189E+20
     -0.157957957958E+01      0.570784588523E+20      0.602583299039E+20      0.636302408239E+20      0.603223431934E+20
     -0.157557557558E+01      0.584523383332E+20      0.616456201319E+20      0.650305821153E+20      0.617095135268E+20
     -0.157157157157E+01      0.599279638005E+20      0.631228769571E+20      0.665088153389E+20      0.631865520322E+20
     -0.156756756757E+01      0.614988283367E+20      0.646861453042E+20      0.680636617910E+20      0.647495451440E+20
     -0.156356356356E+01      0.631578196749E+20      0.663307610817E+20      0.696930328544E+20      0.663938712036E+20
     -0.155955955956E+01      0.648971901332E+20      0.680513028853E+20      0.713939654068E+20      0.681141528084E+20
     -0.155555555556E+01      0.667085441905E+20      0.698415645722E+20      0.731625780866E+20      0.699042289498E+20
     -0.155155155155E+01      0.685828501490E+20      0.716945525909E+20      0.749940486938E+20      0.717571504779E+20
     -0.154754754755E+01      0.705104795051E+20      0.736025102289E+20      0.768826134489E+20      0.736652010610E+20
     -0.154354354354E+01      0.724812746864E+20      0.755569689903E+20      0.788215894123E+20      0.756199443630E+20
     -0.153953953954E+01      0.744846430733E+20      0.775488252241E+20      0.808034215099E+20      0.776122966024E+20
     -0.153553553554E+01      0.765096730815E+20      0.795684382895E+20      0.828197549837E+20      0.796326221182E+20
     -0.153153153153E+01      0.785452668735E+20      0.816057455075E+20      0.848615326903E+20      0.816708483571E+20
     -0.152752752753E+01      0.805802841481E+20      0.836503893232E+20      0.869191148696E+20      0.837165961136E+20
     -0.152352352352E+01      0.826036923023E+20      0.856918534361E+20      0.889824173585E+20      0.857593210323E+20
     -0.151951951952E+01      0.846047196351E+20      0.877196065576E+20      0.910410632364E+20      0.877884631430E+20
     -0.151551551552E+01      0.865730095649E+20      0.897232539748E+20      0.930845428899E+20      0.897936021432E+20
     -0.151151151151E+01      0.884987745382E+20      0.916926973861E+20      0.951023784020E+20      0.917646167754E+20
     -0.150750750751E+01      0.903729481800E+20      0.936183021966E+20      0.970842896287E+20      0.936918466684E+20
     -0.150350350350E+01      0.921873334253E+20      0.954910690217E+20      0.990203607470E+20      0.955662543980E+20
     -0.149949949950E+01      0.939347432841E+20      0.973028034893E+20      0.100901206863E+21      0.973795845454E+20
     -0.149549549550E+01      0.956091299756E+20      0.990462766143E+20      0.102718140077E+21      0.991245155556E+20
     -0.149149149149E+01      0.972056976729E+20      0.100715367634E+21      0.104463333121E+21      0.100794799476E+21
     -0.148748748749E+01      0.987209940013E+20      0.102305182181E+21      0.106129976466E+21      0.102385384216E+21
     -0.148348348348E+01      0.100152975480E+21      0.103812140347E+21      0.107712422066E+21      0.103892512631E+21
     -0.147947947948E+01      0.101501042040E+21      0.105234030701E+21      0.109206304313E+21      0.105313792351E+21
     -0.147547547548E+01      0.102766035580E+21      0.106570027264E+21      0.110608626991E+21      0.106648229945E+21
     -0.147147147147E+01      0.103950197625E+21      0.107820666866E+21      0.111917804938E+21      0.107896223143E+21
     -0.146746746747E+01      0.105057082110E+21      0.108987784976E+21      0.113133651336E+21      0.109059506141E+21
     -0.146346346346E+01      0.106091421811E+21      0.110074409645E+21      0.114257306109E+21      0.110141045855E+21
     -0.145945945946E+01      0.107058950913E+21      0.111084615892E+21      0.115291107449E+21      0.111144891418E+21
     -0.145545545546E+01      0.107966191149E+21      0.112023346212E+21      0.116238415582E+21      0.112075984315E+21
     -0.145145145145E+01      0.108820213401E+21      0.112896205756E+21      0.117103403945E+21      0.112939941034E+21
     -0.144744744745E+01      0.109628389237E+21      0.113709242358E+21      0.117890836247E+21      0.113742822614E+21
     -0.144344344344E+01      0.110398146772E+21      0.114468721499E+21      0.118605847553E+21      0.114490905275E+21
     -0.143943943944E+01      0.111136742605E+21      0.115180905245E+21      0.119253743504E+21      0.115190463785E+21
     -0.143543543544E+01      0.111851057651E+21      0.115851843175E+21      0.119839825423E+21      0.115847575416E+21
     -0.143143143143E+01      0.112547421121E+21      0.116487183285E+21      0.120369242140E+21      0.116467948849E+21
     -0.142742742743E+01      0.113231464835E+21      0.117092011686E+21      0.120846864253E+21      0.117056780258E+21
     -0.142342342342E+01      0.113908009786E+21      0.117670730647E+21      0.121277174709E+21      0.117618638381E+21
     -0.141941941942E+01      0.114580987560E+21      0.118226983553E+21      0.121664171722E+21      0.118157380945E+21
     -0.141541541542E+01      0.115253399616E+21      0.118763631552E+21      0.122011285321E+21      0.118676105496E+21
     -0.141141141141E+01      0.115927316309E+21      0.119282780283E+21      0.122321315190E+21      0.119177137261E+21
     -0.140740740741E+01      0.116603914911E+21      0.119785847567E+21      0.122596402388E+21      0.119662054955E+21
     -0.140340340340E+01      0.117283552191E+21      0.120273657034E+21      0.122838048572E+21      0.120131752599E+21
     -0.139939939940E+01      0.117965863885E+21      0.120746540563E+21      0.123047192382E+21      0.120586532277E+21
     -0.139539539540E+01      0.118649881644E+21      0.121204435284E+21      0.123224343894E+21      0.121026220274E+21
     -0.139139139139E+01      0.119334158235E+21      0.121646967694E+21      0.123369766554E+21      0.121450297494E+21
     -0.138738738739E+01      0.120016893315E+21      0.122073525539E+21      0.123483684504E+21      0.121858034453E+21
     -0.138338338338E+01      0.120696053677E+21      0.122483324011E+21      0.123566484978E+21      0.122248620889E+21
     -0.137937937938E+01      0.121369482483E+21      0.122875473925E+21      0.123618882920E+21      0.122621279776E+21
     -0.137537537538E+01      0.122034991326E+21      0.123249055423E+21      0.123642019469E+21      0.122975355406E+21
     -0.137137137137E+01      0.122690428034E+21      0.123603193219E+21      0.123637477033E+21      0.123310366095E+21
     -0.136736736737E+01      0.123333713425E+21      0.123937122157E+21      0.123607209307E+21      0.123626014963E+21
     -0.136336336336E+01      0.123962843265E+21      0.124250228530E+21      0.123553401193E+21      0.123922157663E+21
     -0.135935935936E+01      0.124575857367E+21      0.124542055268E+21      0.123478287425E+21      0.124198733353E+21
     -0.135535535536E+01      0.125170784971E+21      0.124812267252E+21      0.123383966298E+21      0.124455672841E+21
     -0.135135135135E+01      0.125745581815E+21      0.125060583972E+21      0.123272244609E+21      0.124692803465E+21
     -0.134734734735E+01      0.126298077435E+21      0.125286696630E+21      0.123144542093E+21      0.124909772053E+21
