             #Energy(eV)           XX(uW/cm/K^2)           YY(uW/cm/K^2)           ZZ(uW/cm/K^2)      Average(uW/cm/K^2)
     -0.200000000000E+01      0.129747943618E+02      0.104024624347E+02      0.691057799580E+01      0.100959449308E+02
     -0.199599599600E+01      0.132512103937E+02      0.103493661446E+02      0.662313479671E+01      0.100745704450E+02
     -0.199199199199E+01      0.134356344333E+02      0.102509710128E+02      0.634792945261E+01      0.100115116329E+02
     -0.198798798799E+01      0.135199654170E+02      0.101034453402E+02      0.608052822489E+01      0.990131299404E+01
     -0.198398398398E+01      0.134992207148E+02      0.990432632464E+01      0.581662952143E+01      0.974005885364E+01
     -0.197997997998E+01      0.133715962075E+02      0.965259703597E+01      0.555226897099E+01      0.952548740482E+01
     -0.197597597598E+01      0.131383339107E+02      0.934868515732E+01      0.528399717849E+01      0.925700541549E+01
     -0.197197197197E+01      0.128034352674E+02      0.899438778323E+01      0.500902367427E+01      0.893561557496E+01
     -0.196796796797E+01      0.123732692947E+02      0.859273748382E+01      0.472532295119E+01      0.856377657656E+01
     -0.196396396396E+01      0.118561290161E+02      0.814783390748E+01      0.443170120118E+01      0.814522137491E+01
     -0.195995995996E+01      0.112617858392E+02      0.766466766232E+01      0.412782490150E+01      0.768475946767E+01
     -0.195595595596E+01      0.106010803010E+02      0.714895742646E+01      0.381421443930E+01      0.718808405558E+01
     -0.195195195195E+01      0.988557186056E+01      0.660700982896E+01      0.349220743963E+01      0.666159637638E+01
     -0.194794794795E+01      0.912725461824E+01      0.604560008223E+01      0.316389743668E+01      0.611225071238E+01
     -0.194394394394E+01      0.833833389619E+01      0.547186468123E+01      0.283205395849E+01      0.554741751197E+01
     -0.193993993994E+01      0.753105212860E+01      0.489319746127E+01      0.250002975586E+01      0.497475978191E+01
     -0.193593593594E+01      0.671755037946E+01      0.431714464495E+01      0.217165954245E+01      0.440211818896E+01
     -0.193193193193E+01      0.590975147751E+01      0.375129872376E+01      0.185115224902E+01      0.383740081676E+01
     -0.192792792793E+01      0.511925015682E+01      0.320319146972E+01      0.154297593816E+01      0.328847252157E+01
     -0.192392392392E+01      0.435719448013E+01      0.268018255495E+01      0.125173209870E+01      0.276303637793E+01
     -0.191991991992E+01      0.363414274503E+01      0.218933493675E+01      0.982015009041E+00      0.226849756361E+01
     -0.191591591592E+01      0.295988307036E+01      0.173726546655E+01      0.738252811770E+00      0.181180044956E+01
     -0.191191191191E+01      0.234320990753E+01      0.132996198898E+01      0.524529830771E+00      0.139923390909E+01
     -0.190790790791E+01      0.179166191901E+01      0.972566534124E+00      0.344393900247E+00      0.103620745113E+01
     -0.190390390390E+01      0.131123660753E+01      0.669135390855E+00      0.200657248542E+00      0.727009748975E+00
     -0.189989989990E+01      0.906106040317E+00      0.422397099141E+00      0.952040553726E-01      0.474569064943E+00
     -0.189589589590E+01      0.578363142494E+00      0.233535708660E+00      0.288216064433E-01      0.280240152532E+00
     -0.189189189189E+01      0.327828871346E+00      0.102027866397E+00      0.107444819001E-02      0.143643728644E+00
     -0.188788788789E+01      0.151947756924E+00      0.255589830162E-01      0.102413728156E-01      0.625827042521E-01
     -0.188388388388E+01      0.457937910947E-01      0.372482538125E-04      0.533325709583E-01      0.330545367689E-01
     -0.187987987988E+01      0.220122636199E-02      0.197158401638E-01      0.126198202151E+00      0.493717562257E-01
     -0.187587587588E+01      0.120259270471E-01      0.774240233507E-01      0.223729992918E+00      0.104393314439E+00
     -0.187187187187E+01      0.645328769656E-01      0.164897455440E+00      0.340145422158E+00      0.189858584855E+00
     -0.186786786787E+01      0.147894985268E+00      0.273187705626E+00      0.469331788142E+00      0.296804826345E+00
     -0.186386386386E+01      0.249778535315E+00      0.393122053515E+00      0.605217649116E+00      0.416039412649E+00
     -0.185985985986E+01      0.357982678605E+00      0.515778668043E+00      0.742134092032E+00      0.538631812893E+00
     -0.185585585586E+01      0.461095100518E+00      0.632940501840E+00      0.875129191777E+00      0.656388264712E+00
     -0.185185185185E+01      0.549123488448E+00      0.737493993277E+00      0.100020564126E+01      0.762274374327E+00
     -0.184784784785E+01      0.614062162148E+00      0.823745178774E+00      0.111446242440E+01      0.850756588442E+00
     -0.184384384384E+01      0.650354351010E+00      0.887634543457E+00      0.121613444952E+01      0.918041114661E+00
     -0.183983983984E+01      0.655212561505E+00      0.926841160991E+00      0.130453698778E+01      0.962196903424E+00
     -0.183583583584E+01      0.628762435261E+00      0.940775049783E+00      0.137993253725E+01      0.983156674099E+00
     -0.183183183183E+01      0.573980556813E+00      0.930463539274E+00      0.144334481287E+01      0.982596302987E+00
     -0.182782782783E+01      0.496405739881E+00      0.898342832566E+00      0.149634710015E+01      0.963698557532E+00
     -0.182382382382E+01      0.403618584883E+00      0.847970418280E+00      0.154085021149E+01      0.930813071551E+00
     -0.181981981982E+01      0.304507046635E+00      0.783678275132E+00      0.157890964448E+01      0.889031655414E+00
     -0.181581581582E+01      0.208365887522E+00      0.710191479607E+00      0.161256384964E+01      0.843707072257E+00
     -0.181181181181E+01      0.123911548556E+00      0.632241777623E+00      0.164370763521E+01      0.799953653795E+00
     -0.180780780781E+01      0.583239071254E-01      0.554209826625E+00      0.167399830200E+01      0.762177345250E+00
     -0.180380380380E+01      0.164429541831E-01      0.479831092032E+00      0.170478812599E+01      0.733687390734E+00
     -0.179979979980E+01      0.242523326797E-03      0.411996397395E+00      0.173707553896E+01      0.716438153229E+00
     -0.179579579580E+01      0.867032389747E-02      0.352667372961E+00      0.177146841227E+01      0.710935369710E+00
     -0.179179179179E+01      0.378869990691E-01      0.302910164223E+00      0.180815547407E+01      0.716317545789E+00
     -0.178778778779E+01      0.818684429014E-01      0.263031051143E+00      0.184688525258E+01      0.730594915542E+00
     -0.178378378378E+01      0.133272075579E+00      0.232780245829E+00      0.188695527730E+01      0.751002532902E+00
     -0.177977977978E+01      0.184425518536E+00      0.211580164957E+00      0.192721694464E+01      0.774407542712E+00
     -0.177577577578E+01      0.228285046774E+00      0.198734807764E+00      0.196610290507E+01      0.797707586535E+00
     -0.177177177177E+01      0.259231687111E+00      0.193587027308E+00      0.200168358649E+01      0.818167433637E+00
     -0.176776776777E+01      0.273616453116E+00      0.195606914755E+00      0.203175723832E+01      0.833660202063E+00
     -0.176376376376E+01      0.270019617461E+00      0.204412149972E+00      0.205397369923E+01      0.842801822221E+00
     -0.175975975976E+01      0.249238731988E+00      0.219735309952E+00      0.206598647699E+01      0.844986839644E+00
     -0.175575575576E+01      0.214056677006E+00      0.241360863332E+00      0.206562170588E+01      0.840346415407E+00
     -0.175175175175E+01      0.168860110058E+00      0.269055303066E+00      0.205104749075E+01      0.829654301293E+00
     -0.174774774775E+01      0.119181024048E+00      0.302508924444E+00      0.202092443431E+01      0.814204794266E+00
     -0.174374374374E+01      0.712237672087E-01      0.341299616462E+00      0.197451873511E+01      0.795680706261E+00
     -0.173973973974E+01      0.314222351815E-01      0.384880385213E+00      0.191176335136E+01      0.776021990585E+00
     -0.173573573574E+01      0.605220413523E-02      0.432585337571E+00      0.183325971720E+01      0.757299086303E+00
     -0.173173173173E+01      0.905958750067E-03      0.483644784500E+00      0.174022106986E+01      0.741590604370E+00
     -0.172772772773E+01      0.210230298476E-01      0.537199274960E+00      0.163436696103E+01      0.730863088611E+00
     -0.172372372372E+01      0.704631644224E-01      0.592304268936E+00      0.151778539887E+01      0.726850944077E+00
     -0.171971971972E+01      0.152105674711E+00      0.647920866195E+00      0.139278307027E+01      0.730936537059E+00
     -0.171571571572E+01      0.267462321622E+00      0.702892459796E+00      0.126174459157E+01      0.744033124330E+00
     -0.171171171171E+01      0.416497628874E+00      0.755911455987E+00      0.112701881866E+01      0.766475967841E+00
     -0.170770770771E+01      0.597459487434E+00      0.805483676332E+00      0.990844719018E+00      0.797929294261E+00
     -0.170370370370E+01      0.806732568373E+00      0.849900446831E+00      0.855322477797E+00      0.837318497667E+00
     -0.169969969970E+01      0.103873603659E+01      0.887229626780E+00      0.722428783381E+00      0.882798148916E+00
     -0.169569569570E+01      0.128589415865E+01      0.915336951770E+00      0.594069685690E+00      0.931766932035E+00
     -0.169169169169E+01      0.153871257113E+01      0.931948023840E+00      0.472160516187E+00      0.980940370384E+00
     -0.168768768769E+01      0.178599325217E+01      0.934758980843E+00      0.358720022743E+00      0.102649075192E+01
     -0.168368368368E+01      0.201521678418E+01      0.921600257663E+00      0.255964764015E+00      0.106426060195E+01
     -0.167967967968E+01      0.221311076640E+01      0.890653013007E+00      0.166389671117E+00      0.109005115017E+01
     -0.167567567568E+01      0.236640816831E+01      0.840712040121E+00      0.928215525878E-01      0.109998058700E+01
     -0.167167167167E+01      0.246277954829E+01      0.771482753814E+00      0.384344801590E-01      0.109089892742E+01
     -0.166766766767E+01      0.249189958334E+01      0.683893619069E+00      0.671975684290E-02      0.106083765308E+01
     -0.166366366366E+01      0.244658307090E+01      0.580399558888E+00      0.140855580173E-02      0.100946372853E+01
     -0.165965965966E+01      0.232390085210E+01      0.465246775094E+00      0.263518236452E-01      0.938499816945E+00
     -0.165565565566E+01      0.212616486496E+01      0.344665373643E+00      0.853686007515E-01      0.852066279786E+00
     -0.165165165165E+01      0.186165719527E+01      0.226953733928E+00      0.182079126808E+00      0.756896685335E+00
     -0.164764764765E+01      0.154497456997E+01      0.122418645864E+00      0.319741679533E+00      0.662378298455E+00
     -0.164364364364E+01      0.119687183868E+01      0.431393870175E-01      0.501111319857E+00      0.580374181851E+00
     -0.163963963964E+01      0.843520258264E+00      0.253410467721E-02      0.728334713644E+00      0.524796358862E+00
     -0.163563563564E+01      0.515151936827E+00      0.147248594595E-01      0.100288886427E+01      0.510921886851E+00
     -0.163163163163E+01      0.244139413599E+00      0.937237555790E-01      0.132556421764E+01      0.554475795606E+00
     -0.162762762763E+01      0.626506030194E-01      0.252494142691E+00      0.169648544382E+01      0.670543396510E+00
     -0.162362362362E+01      0.107323478010E-03      0.501971828237E+00      0.211515720140E+01      0.872412117705E+00
     -0.161961961962E+01      0.807376586868E-01      0.850152931004E+00      0.258051799958E+01      0.117046952976E+01
     -0.161561561562E+01      0.321526829197E+00      0.130135895144E+01      0.309098341478E+01      0.157128973181E+01
     -0.161161161161E+01      0.730826407943E+00      0.185577112635E+01      0.364446091065E+01      0.207701948165E+01
     -0.160760760761E+01      0.130778248033E+01      0.250928702097E+01      0.423832275237E+01      0.268513075123E+01
     -0.160360360360E+01      0.204261159934E+01      0.325370133280E+01      0.486933096968E+01      0.338854796727E+01
     -0.159959959960E+01      0.291762132902E+01      0.407716310097E+01      0.553351824249E+01      0.417610089083E+01
     -0.159559559560E+01      0.390877141338E+01      0.496482577547E+01      0.622603935587E+01      0.503321218157E+01
     -0.159159159159E+01      0.498752279620E+01      0.589959298059E+01      0.694101730281E+01      0.594271102653E+01
     -0.158758758759E+01      0.612272895002E+01      0.686287200349E+01      0.767141395314E+01      0.688567163555E+01
     -0.158358358358E+01      0.728237562661E+01      0.783527272372E+01      0.840895581634E+01      0.784220138889E+01
     -0.157957957958E+01      0.843504988663E+01      0.879722153873E+01      0.914414035419E+01      0.879213725985E+01
     -0.157557557558E+01      0.955109427749E+01      0.972948769483E+01      0.986633854097E+01      0.971564017110E+01
     -0.157157157157E+01      0.106034600898E+02      0.106136368330E+02      0.105639971522E+02      0.105936980250E+02
     -0.156756756757E+01      0.115683068219E+02      0.114324320525E+02      0.112249323648E+02      0.114085570797E+02
     -0.156356356356E+01      0.124254044234E+02      0.121701989782E+02      0.118366970568E+02      0.121441001528E+02
     -0.155955955956E+01      0.131583875356E+02      0.128131625462E+02      0.123869988841E+02      0.127861829886E+02
     -0.155555555556E+01      0.137548955588E+02      0.133497534810E+02      0.128641445045E+02      0.133229311814E+02
     -0.155155155155E+01      0.142066163820E+02      0.137708743415E+02      0.132574858583E+02      0.137449921939E+02
     -0.154754754755E+01      0.145092396718E+02      0.140701099603E+02      0.135578456362E+02      0.140457317561E+02
     -0.154354354354E+01      0.146623196436E+02      0.142438658289E+02      0.137579000558E+02      0.142213618428E+02
     -0.153953953954E+01      0.146690470847E+02      0.142914207774E+02      0.138524979498E+02      0.142709886039E+02
     -0.153553553554E+01      0.145359345790E+02      0.142148866954E+02      0.138388968813E+02      0.141965727186E+02
     -0.153153153153E+01      0.142724251394E+02      0.140190765005E+02      0.137169006649E+02      0.140028007683E+02
     -0.152752752753E+01      0.138904403557E+02      0.137112896322E+02      0.134888888072E+02      0.136968729317E+02
     -0.152352352352E+01      0.134038877486E+02      0.133010296064E+02      0.131597365344E+02      0.132882179631E+02
     -0.151951951952E+01      0.128281474292E+02      0.127996693159E+02      0.127366328203E+02      0.127881498551E+02
     -0.151551551552E+01      0.121795558656E+02      0.122200774251E+02      0.122288113192E+02      0.122094815366E+02
     -0.151151151151E+01      0.114749009949E+02      0.115762155908E+02      0.116472137965E+02      0.115661101274E+02
     -0.150750750751E+01      0.107309397462E+02      0.108827140152E+02      0.110041068856E+02      0.108725868823E+02
     -0.150350350350E+01      0.996394729791E+01      0.101544336478E+02      0.103126712750E+02      0.101436840736E+02
     -0.149949949950E+01      0.918930713130E+01      0.940602700292E+01      0.958657906704E+01      0.939397106709E+01
     -0.149549549550E+01      0.842115137946E+01      0.865151416621E+01      0.883957167135E+01      0.863741240567E+01
     -0.149149149149E+01      0.767206107477E+01      0.790389368669E+01      0.808504851084E+01      0.788700109077E+01
     -0.148748748749E+01      0.695283494134E+01      0.717480800942E+01      0.733567663711E+01      0.715443986262E+01
     -0.148348348348E+01      0.627233325264E+01      0.647427973012E+01      0.660303291083E+01      0.644988196453E+01
     -0.147947947948E+01      0.563740035700E+01      0.581052943857E+01      0.589729284714E+01      0.578174088090E+01
     -0.147547547548E+01      0.505286627186E+01      0.518987993711E+01      0.522698223730E+01      0.515657614876E+01
     -0.147147147147E+01      0.452162451567E+01      0.461674634816E+01      0.459880776829E+01      0.457905954404E+01
     -0.146746746747E+01      0.404477995710E+01      0.409370726882E+01      0.401757986985E+01      0.405202236525E+01
     -0.146346346346E+01      0.362185663254E+01      0.362164818922E+01      0.348623447415E+01      0.357657976530E+01
     -0.145945945946E+01      0.325105120848E+01      0.319996437683E+01      0.300595093271E+01      0.315232217267E+01
     -0.145545545546E+01      0.292951365115E+01      0.282680650526E+01      0.257635277512E+01      0.277755764384E+01
     -0.145145145145E+01      0.265363387705E+01      0.249934937893E+01      0.219576875558E+01      0.244958400385E+01
     -0.144744744745E+01      0.241931294217E+01      0.221406333300E+01      0.186152601521E+01      0.216496743013E+01
     -0.144344344344E+01      0.222220036672E+01      0.196696995032E+01      0.157024652895E+01      0.191980561533E+01
     -0.143943943944E+01      0.205788518727E+01      0.175386835595E+01      0.131812221870E+01      0.170995858731E+01
     -0.143543543544E+01      0.192203603612E+01      0.157052434938E+01      0.110115178456E+01      0.153123739002E+01
     -0.143143143143E+01      0.181049324177E+01      0.141282044951E+01      0.915331252779E+00      0.137954831469E+01
     -0.142742742743E+01      0.171932200141E+01      0.127686925027E+01      0.756798265787E+00      0.125099650582E+01
     -0.142342342342E+01      0.164483902695E+01      0.115909469591E+01      0.621935662354E+00      0.114195646174E+01
     -0.141941941942E+01      0.158362538040E+01      0.105628615569E+01      0.507442270816E+00      0.104911793563E+01
     -0.141541541542E+01      0.153253587272E+01      0.965629264782E+00      0.410378361007E+00      0.969514499502E+00
     -0.141141141141E+01      0.148871133259E+01      0.884716393820E+00      0.328190853118E+00      0.900539526509E+00
     -0.140740740741E+01      0.144959550091E+01      0.811539140957E+00      0.258720452517E+00      0.839951698130E+00
     -0.140340340340E+01      0.141295450304E+01      0.744465739437E+00      0.200190590527E+00      0.785870277669E+00
     -0.139939939940E+01      0.137689464780E+01      0.682207428773E+00      0.151177279792E+00      0.736759785454E+00
     -0.139539539540E+01      0.133987390809E+01      0.623778843012E+00      0.110560108524E+00      0.691404286540E+00
     -0.139139139139E+01      0.130070341114E+01      0.568457456620E+00      0.774573759849E-01      0.648872747915E+00
     -0.138738738739E+01      0.125853683288E+01      0.515745692358E+00      0.511519835027E-01      0.608478169580E+00
     -0.138338338338E+01      0.121284711826E+01      0.465336814486E+00      0.310178382540E-01      0.569733923666E+00
     -0.137937937938E+01      0.116339127086E+01      0.417083256895E+00      0.164577818536E-01      0.532310769871E+00
     -0.137537537538E+01      0.111016530829E+01      0.370964770802E+00      0.686244267428E-02      0.495997507256E+00
     -0.137137137137E+01      0.105335310553E+01      0.327054398132E+00      0.159492803407E-02      0.460667477233E+00
     -0.136736736737E+01      0.993274566964E+00      0.285482506606E+00      0.917930141942E-07      0.426252388454E+00
     -0.136336336336E+01      0.930339690372E+00      0.246401812499E+00      0.143121899406E-02      0.392724240622E+00
     -0.135935935936E+01      0.865014770848E+00      0.209958034268E+00      0.528333485516E-02      0.360085379990E+00
     -0.135535535536E+01      0.797804794498E+00      0.176270598862E+00      0.110220546680E-01      0.328365816009E+00
     -0.135135135135E+01      0.729252315870E+00      0.145425636663E+00      0.181997009951E-01      0.297625884509E+00
     -0.134734734735E+01      0.659948831453E+00      0.117480209703E+00      0.264549984426E-01      0.267961346533E+00
