             #Energy(eV)                XX(uV/K)                YY(uV/K)                ZZ(uV/K)           Average(uV/K)
     -0.200000000000E+01     -0.576183648246E+02     -0.462107451980E+02     -0.343772070056E+02     -0.460687723427E+02
     -0.199599599600E+01     -0.573785381627E+02     -0.455641518184E+02     -0.333417956736E+02     -0.454281618849E+02
     -0.199199199199E+01     -0.569291914237E+02     -0.448317801067E+02     -0.323458400833E+02     -0.447022705379E+02
     -0.198798798799E+01     -0.562692860031E+02     -0.440071907675E+02     -0.313770973638E+02     -0.438845247115E+02
     -0.198398398398E+01     -0.554028633828E+02     -0.430864780680E+02     -0.304234056020E+02     -0.429709156843E+02
     -0.197997997998E+01     -0.543382130558E+02     -0.420681101879E+02     -0.294731145222E+02     -0.419598125887E+02
     -0.197597597598E+01     -0.530869143683E+02     -0.409526573525E+02     -0.285154421712E+02     -0.408516712973E+02
     -0.197197197197E+01     -0.516628445629E+02     -0.397424338769E+02     -0.275407427877E+02     -0.396486737425E+02
     -0.196796796797E+01     -0.500812339806E+02     -0.384410930020E+02     -0.265406815619E+02     -0.383543361815E+02
     -0.196396396396E+01     -0.483578335365E+02     -0.370532223300E+02     -0.255083214831E+02     -0.369731257832E+02
     -0.195995995996E+01     -0.465082392794E+02     -0.355839860029E+02     -0.244381344315E+02     -0.355101199046E+02
     -0.195595595596E+01     -0.445473955030E+02     -0.340388457425E+02     -0.233259526486E+02     -0.339707312980E+02
     -0.195195195195E+01     -0.424892750369E+02     -0.324233712259E+02     -0.221688782976E+02     -0.323605081868E+02
     -0.194794794795E+01     -0.403467175651E+02     -0.307431298201E+02     -0.209651690302E+02     -0.306850054718E+02
     -0.194394394394E+01     -0.381313974861E+02     -0.290036346343E+02     -0.197141170580E+02     -0.289497163928E+02
     -0.193993993994E+01     -0.358538922879E+02     -0.272103313225E+02     -0.184159381792E+02     -0.271600539299E+02
     -0.193593593594E+01     -0.335238276985E+02     -0.253686147293E+02     -0.170716849324E+02     -0.253213757867E+02
     -0.193193193193E+01     -0.311500823009E+02     -0.234838786069E+02     -0.156831939136E+02     -0.234390516071E+02
     -0.192792792793E+01     -0.287410378196E+02     -0.215616075358E+02     -0.142530713477E+02     -0.215185722344E+02
     -0.192392392392E+01     -0.263048604513E+02     -0.196075162398E+02     -0.127847141901E+02     -0.195656969604E+02
     -0.191991991992E+01     -0.238497949261E+02     -0.176277297103E+02     -0.112823578632E+02     -0.175866274999E+02
     -0.191591591592E+01     -0.213844496556E+02     -0.156289839555E+02     -0.975113754217E+01     -0.155881903844E+02
     -0.191191191191E+01     -0.189180512521E+02     -0.136188183148E+02     -0.819714818573E+01     -0.135780059176E+02
     -0.190790790791E+01     -0.164606509076E+02     -0.116057297826E+02     -0.662748874769E+01     -0.115646231460E+02
     -0.190390390390E+01     -0.140232723522E+02     -0.959926712715E+01     -0.505027707811E+01     -0.955760551915E+01
     -0.189989989990E+01     -0.116179987523E+02     -0.761005387432E+01     -0.347462298171E+01     -0.756755853609E+01
     -0.189589589590E+01     -0.925800143949E+01     -0.564973972212E+01     -0.191054756303E+01     -0.560609624155E+01
     -0.189189189189E+01     -0.695751557271E+01     -0.373088640622E+01     -0.368838092256E+00     -0.368574669040E+01
     -0.188788788789E+01     -0.473176713836E+01     -0.186679588651E+01      0.113916961070E+01     -0.181979780472E+01
     -0.188388388388E+01     -0.259685362294E+01     -0.712876794254E-01      0.260188388428E+01     -0.220858060269E-01
     -0.187987987988E+01     -0.569578879460E+00      0.164156917026E+01      0.400781956145E+01      0.169326995075E+01
     -0.187587587588E+01      0.133275792240E+01      0.325776363940E+01      0.534601480353E+01      0.331217878844E+01
     -0.187187187187E+01      0.309261895949E+01      0.476368151158E+01      0.660647797331E+01      0.482092614813E+01
     -0.186786786787E+01      0.469252916495E+01      0.614646363726E+01      0.778063315592E+01      0.620654198604E+01
     -0.186386386386E+01      0.611542180788E+01      0.739436921143E+01      0.886172981095E+01      0.745717361009E+01
     -0.185985985986E+01      0.734502926561E+01      0.849712919126E+01      0.984518306777E+01      0.856244717488E+01
     -0.185585585586E+01      0.836632248461E+01      0.944627729072E+01      0.107288157454E+02      0.951380517358E+01
     -0.185185185185E+01      0.916600473803E+01      0.102354503047E+02      0.115129802624E+02      0.103048117684E+02
     -0.184784784785E+01      0.973306540730E+01      0.108606543041E+02      0.122005473640E+02      0.109314223585E+02
     -0.184384384384E+01      0.100593960941E+02      0.113204968559E+02      0.127967586272E+02      0.113922171924E+02
     -0.183983983984E+01      0.101404633040E+02      0.116163866387E+02      0.133089507694E+02      0.116886002374E+02
     -0.183583583584E+01      0.997601878963E+01      0.117527000708E+02      0.137461712495E+02      0.118249633700E+02
     -0.183183183183E+01      0.957081081703E+01      0.117369098878E+02      0.141187150412E+02      0.118088119153E+02
     -0.182782782783E+01      0.893523870833E+01      0.115796634686E+02      0.144376196319E+02      0.116508406029E+02
     -0.182382382382E+01      0.808587213833E+01      0.112947900747E+02      0.147141571432E+02      0.113649397854E+02
     -0.181981981982E+01      0.704574068649E+01      0.108992076680E+02      0.149593579813E+02      0.109681021119E+02
     -0.181581581582E+01      0.584429426129E+01      0.104126941820E+02      0.151835904309E+02      0.104801929581E+02
     -0.181181181181E+01      0.451694744726E+01      0.985748841124E+01      0.153962077615E+02      0.992354787333E+01
     -0.180780780781E+01      0.310415460519E+01      0.925769536699E+01      0.156052623385E+02      0.932237077024E+01
     -0.180380380380E+01      0.165001698419E+01      0.863849176060E+01      0.158172781400E+02      0.870192896159E+01
     -0.179979979980E+01      0.200491049572E+00      0.802515768146E+01      0.160370706774E+02      0.808757313615E+01
     -0.179579579580E+01     -0.119866448186E+01      0.744199505459E+01      0.162676063224E+02      0.750364563172E+01
     -0.179179179179E+01     -0.250401292578E+01      0.691122360702E+01      0.165098995675E+02      0.697237008291E+01
     -0.178778778779E+01     -0.367642267336E+01      0.645196206269E+01      0.167629542321E+02      0.651283120715E+01
     -0.178378378378E+01     -0.468271077232E+01      0.607940033270E+01      0.170237606750E+02      0.614015007847E+01
     -0.177977977978E+01     -0.549679737982E+01      0.580424708861E+01      0.172873640324E+02      0.586493791374E+01
     -0.177577577578E+01     -0.610029267158E+01      0.563250128042E+01      0.175470175604E+02      0.569307538976E+01
     -0.177177177177E+01     -0.648251546818E+01      0.556555431515E+01      0.177944302408E+02      0.562582302925E+01
     -0.176776776777E+01     -0.664001118893E+01      0.560059053574E+01      0.180201094523E+02      0.566022959970E+01
     -0.176376376376E+01     -0.657568478611E+01      0.573122382556E+01      0.182137887848E+02      0.578977594141E+01
     -0.175975975976E+01     -0.629768771702E+01      0.594829059348E+01      0.183649195220E+02      0.600517413283E+01
     -0.175575575576E+01     -0.581819852441E+01      0.624071385471E+01      0.184631937913E+02      0.629523637386E+01
     -0.175175175175E+01     -0.515221991685E+01      0.659635742070E+01      0.184990597315E+02      0.664773241179E+01
     -0.174774774775E+01     -0.431648850996E+01      0.700280046498E+01      0.184641857567E+02      0.705016590391E+01
     -0.174374374374E+01     -0.332856318147E+01      0.744797823468E+01      0.183518328488E+02      0.749041596735E+01
     -0.173973973974E+01     -0.220612917132E+01      0.792065224770E+01      0.181571007101E+02      0.795720792882E+01
     -0.173573573574E+01     -0.966530464291E+00      0.841069132573E+01      0.178770246953E+02      0.844039518559E+01
     -0.173173173173E+01      0.373476282943E+00      0.890916206961E+01      0.175105144894E+02      0.893105094732E+01
     -0.172772772773E+01      0.179776704844E+01      0.940824296311E+01      0.170581410930E+02      0.942138370153E+01
     -0.172372372372E+01      0.329072519070E+01      0.990098935830E+01      0.165217943611E+02      0.990450297005E+01
     -0.171971971972E+01      0.483698134907E+01      0.103809863176E+02      0.159042473668E+02      0.103740716778E+02
     -0.171571571572E+01      0.642105639590E+01      0.108419319357E+02      0.152086742557E+02      0.108238875291E+02
     -0.171171171171E+01      0.802694478057E+01      0.112771950256E+02      0.144381731082E+02      0.112474376381E+02
     -0.170770770771E+01      0.963767310116E+01      0.116793883176E+02      0.135953435830E+02      0.116374683339E+02
     -0.170370370370E+01      0.112348653535E+02      0.120399927247E+02      0.126819611912E+02      0.119856064231E+02
     -0.169969969970E+01      0.127983431889E+02      0.123490612428E+02      0.116987778650E+02      0.122820607655E+02
     -0.169569569570E+01      0.143057875626E+02      0.125950239939E+02      0.106454646828E+02      0.125154254131E+02
     -0.169169169169E+01      0.157324877758E+02      0.127646094671E+02      0.952069941923E+01      0.126725988874E+02
     -0.168768768769E+01      0.170512049554E+02      0.128428913369E+02      0.832238999758E+01      0.127388287633E+02
     -0.168368368368E+01      0.182321789809E+02      0.128134652571E+02      0.704801474261E+01      0.126978863269E+02
     -0.167967967968E+01      0.192433100083E+02      0.126587557302E+02      0.569505088557E+01      0.125323722080E+02
     -0.167567567568E+01      0.200505471263E+02      0.123604496313E+02      0.426145390661E+01      0.122241502214E+02
     -0.167167167167E+01      0.206185160310E+02      0.119000501277E+02      0.274614285825E+01      0.117549030056E+02
     -0.166766766767E+01      0.209114132837E+02      0.112595421161E+02      0.114944259208E+01      0.111067993306E+02
     -0.166366366366E+01      0.208941848083E+02      0.104221570604E+02     -0.526565130190E+00      0.102632589129E+02
     -0.165965965966E+01      0.205339888966E+02      0.937322022068E+01     -0.227782188761E+01      0.920979574324E+01
     -0.165565565566E+01      0.198019177113E+02      0.810105584525E+01     -0.409822998191E+01      0.793491452488E+01
     -0.165165165165E+01      0.186749156725E+02      0.659791538068E+01     -0.597975337717E+01      0.643102589200E+01
     -0.164764764765E+01      0.171377895511E+02      0.486088016315E+01     -0.791266781340E+01      0.469533396695E+01
     -0.164364364364E+01      0.151851577766E+02      0.289267449145E+01     -0.988592743899E+01      0.273063494301E+01
     -0.163963963964E+01      0.128231433976E+02      0.702310213521E+00     -0.118876028877E+02      0.545950241157E+00
     -0.163563563564E+01      0.100705881113E+02     -0.169452525053E+01     -0.139053407221E+02     -0.184309262046E+01
     -0.163163163163E+01      0.695956746206E+01     -0.427542311102E+01     -0.159267961055E+02     -0.441421725150E+01
     -0.162762762763E+01      0.353503092405E+01     -0.701161585259E+01     -0.179399975639E+02     -0.713886083080E+01
     -0.162362362362E+01     -0.146521700885E+00     -0.986877605569E+01     -0.199336126433E+02     -0.998297013330E+01
     -0.161961961962E+01     -0.401929358675E+01     -0.128082252744E+02     -0.218970947614E+02     -0.129082045409E+02
     -0.161561561562E+01     -0.801120462224E+01     -0.157884672690E+02     -0.238207042295E+02     -0.158734587069E+02
     -0.161161161161E+01     -0.120473781311E+02     -0.187669080476E+02     -0.256954103724E+02     -0.188365655170E+02
     -0.160760760761E+01     -0.160537404779E+02     -0.217015942495E+02     -0.275126964839E+02     -0.217560104038E+02
     -0.160360360360E+01     -0.199603640364E+02     -0.245527999566E+02     -0.292643034534E+02     -0.245924891488E+02
     -0.159959959960E+01     -0.237042390639E+02     -0.272843211275E+02     -0.309419585807E+02     -0.273101729240E+02
     -0.159559559560E+01     -0.272312647390E+02     -0.298643896369E+02     -0.325371403350E+02     -0.298775982370E+02
     -0.159159159159E+01     -0.304973783496E+02     -0.322661826525E+02     -0.340409255168E+02     -0.322681621730E+02
     -0.158758758759E+01     -0.334688659052E+02     -0.344679629092E+02     -0.354439522481E+02     -0.344602603542E+02
     -0.158358358358E+01     -0.361219935658E+02     -0.364529287054E+02     -0.367365126372E+02     -0.364371449695E+02
     -0.157957957958E+01     -0.384421534986E+02     -0.382088722097E+02     -0.379087669333E+02     -0.381865975472E+02
     -0.157557557558E+01     -0.404227281827E+02     -0.397277412550E+02     -0.389510514722E+02     -0.397005069700E+02
     -0.157157157157E+01     -0.420638521417E+02     -0.410051796905E+02     -0.398542399865E+02     -0.409744239396E+02
     -0.156756756757E+01     -0.433712040001E+02     -0.420400940024E+02     -0.406101142515E+02     -0.420071374180E+02
     -0.156356356356E+01     -0.443549099710E+02     -0.428342679616E+02     -0.412117051669E+02     -0.428002943665E+02
     -0.155955955956E+01     -0.450285943340E+02     -0.433920277472E+02     -0.416535764844E+02     -0.433580661885E+02
     -0.155555555556E+01     -0.454085795887E+02     -0.437199486437E+02     -0.419320364493E+02     -0.436868548939E+02
     -0.155155155155E+01     -0.455132199636E+02     -0.438265897260E+02     -0.420452739052E+02     -0.437950278649E+02
     -0.154754754755E+01     -0.453623445860E+02     -0.437222428971E+02     -0.419934227051E+02     -0.436926700628E+02
     -0.154354354354E+01     -0.449767872829E+02     -0.434186857200E+02     -0.417785613661E+02     -0.433913447897E+02
     -0.153953953954E+01     -0.443779851801E+02     -0.429289327350E+02     -0.414046551539E+02     -0.429038576897E+02
     -0.153553553554E+01     -0.435876351234E+02     -0.422669864000E+02     -0.408774471726E+02     -0.422440228987E+02
     -0.153153153153E+01     -0.426274032196E+02     -0.414475948916E+02     -0.402043051970E+02     -0.414264344361E+02
     -0.152752752753E+01     -0.415186869001E+02     -0.404860278120E+02     -0.393940325840E+02     -0.404662490987E+02
     -0.152352352352E+01     -0.402824299868E+02     -0.393978808022E+02     -0.384566542164E+02     -0.393789883352E+02
     -0.151951951952E+01     -0.389389894016E+02     -0.381989158672E+02     -0.374031909065E+02     -0.381803653918E+02
     -0.151551551552E+01     -0.375080484433E+02     -0.369049372262E+02     -0.362454367197E+02     -0.368861407964E+02
     -0.151151151151E+01     -0.360085675466E+02     -0.355316952627E+02     -0.349957523530E+02     -0.355120050541E+02
     -0.150750750751E+01     -0.344587606159E+02     -0.340948063345E+02     -0.336668839111E+02     -0.340734836205E+02
     -0.150350350350E+01     -0.328760842271E+02     -0.326096753701E+02     -0.322718108295E+02     -0.325858568089E+02
     -0.149949949950E+01     -0.312772280826E+02     -0.310914111536E+02     -0.308236204903E+02     -0.310640865755E+02
     -0.149549549550E+01     -0.296780972814E+02     -0.295547292139E+02     -0.293354015429E+02     -0.295227426794E+02
     -0.149149149149E+01     -0.280937792054E+02     -0.280138419338E+02     -0.278201441287E+02     -0.279759217560E+02
     -0.148748748749E+01     -0.265384894764E+02     -0.264823380817E+02     -0.262906337746E+02     -0.264371537776E+02
     -0.148348348348E+01     -0.250254925556E+02     -0.249730540587E+02     -0.247593269673E+02     -0.249192911939E+02
     -0.147947947948E+01     -0.235669938722E+02     -0.234979378250E+02     -0.232382003722E+02     -0.234343773565E+02
     -0.147547547548E+01     -0.221740029369E+02     -0.220679055767E+02     -0.217385719712E+02     -0.219934934949E+02
     -0.147147147147E+01     -0.208561714230E+02     -0.206926923250E+02     -0.202709002386E+02     -0.206065879955E+02
     -0.146746746747E+01     -0.196216164839E+02     -0.193807008878E+02     -0.188445754501E+02     -0.192822976073E+02
     -0.146346346346E+01     -0.184767461757E+02     -0.181388582798E+02     -0.174677234056E+02     -0.180277759537E+02
     -0.145945945946E+01     -0.174261084886E+02     -0.169724920132E+02     -0.161470443502E+02     -0.168485482840E+02
     -0.145545545546E+01     -0.164722859499E+02     -0.158852396250E+02     -0.148877073824E+02     -0.157484109858E+02
     -0.145145145145E+01     -0.156158530975E+02     -0.148790023240E+02     -0.136933131758E+02     -0.147293895324E+02
     -0.144744744745E+01     -0.148554053907E+02     -0.139539491784E+02     -0.125659269535E+02     -0.137917605076E+02
     -0.144344344344E+01     -0.141876581593E+02     -0.131085738919E+02     -0.115061722275E+02     -0.129341347596E+02
     -0.143943943944E+01     -0.136076063988E+02     -0.123398037406E+02     -0.105133671185E+02     -0.121535924193E+02
     -0.143543543544E+01     -0.131087329287E+02     -0.116431599363E+02     -0.958568182848E+01     -0.114458582312E+02
     -0.143143143143E+01     -0.126832537090E+02     -0.110129689356E+02     -0.872029912522E+01     -0.108055072566E+02
     -0.142742742743E+01     -0.123223927677E+02     -0.104426225456E+02     -0.791356859553E+01     -0.102261946363E+02
     -0.142342342342E+01     -0.120166820142E+02     -0.992487930746E+01     -0.716115699084E+01     -0.970090610418E+01
     -0.141941941942E+01     -0.117562806785E+02     -0.945219101030E+01     -0.645820711903E+01     -0.922222626927E+01
     -0.141541541542E+01     -0.115313048129E+02     -0.901702918038E+01     -0.579952233364E+01     -0.878261877565E+01
     -0.141141141141E+01     -0.113321510857E+02     -0.861218123980E+01     -0.517979015020E+01     -0.837470749189E+01
     -0.140740740741E+01     -0.111497941722E+02     -0.823098822467E+01     -0.459384690885E+01     -0.799154310190E+01
     -0.140340340340E+01     -0.109760362678E+02     -0.786750631054E+01     -0.403696864303E+01     -0.762683707379E+01
     -0.139939939940E+01     -0.108036916309E+02     -0.751659020470E+01     -0.350515646470E+01     -0.727514610009E+01
     -0.139539539540E+01     -0.106266973098E+02     -0.717391231399E+01     -0.299537341493E+01     -0.693199434624E+01
     -0.139139139139E+01     -0.104401503392E+02     -0.683594153877E+01     -0.250568814767E+01     -0.659392667521E+01
     -0.138738738739E+01     -0.102402786583E+02     -0.649990577461E+01     -0.203529070723E+01     -0.625849171338E+01
     -0.138338338338E+01     -0.100243563118E+02     -0.616375296260E+01     -0.158436564653E+01     -0.592415830698E+01
     -0.137937937938E+01     -0.979057391195E+01     -0.582611127529E+01     -0.115383376407E+01     -0.559017298377E+01
     -0.137537537538E+01     -0.953787526804E+01     -0.548623661538E+01     -0.745000080809E+00     -0.525637065474E+01
     -0.137137137137E+01     -0.926577284808E+01     -0.514393120340E+01     -0.359166215653E+00     -0.492295675571E+01
     -0.136736736737E+01     -0.897415887443E+01     -0.479942320410E+01      0.272510295564E-02     -0.459028565852E+01
     -0.136336336336E+01     -0.866313356494E+01     -0.445321179777E+01      0.340349951463E+00     -0.425866513708E+01
     -0.135935935936E+01     -0.833287408359E+01     -0.410589874226E+01      0.654122020788E+00     -0.392821693502E+01
     -0.135535535536E+01     -0.798356440291E+01     -0.375803918197E+01      0.945152564155E+00     -0.359881700691E+01
     -0.135135135135E+01     -0.761539687003E+01     -0.341004618276E+01      0.121506489746E+01     -0.327012605178E+01
     -0.134734734735E+01     -0.722864275829E+01     -0.306217408844E+01      0.146570404385E+01     -0.294170426763E+01
