             #Energy(eV)         XX(1/Omega/m/s)         YY(1/Omega/m/s)         ZZ(1/Omega/m/s)    Average(1/Omega/m/s)
     -0.200000000000E+01      0.101498249042E+22      0.101498249042E+22      0.101498249042E+22      0.101498249042E+22
     -0.199599599600E+01      0.101541562055E+22      0.101541562055E+22      0.101541562055E+22      0.101541562055E+22
     -0.199199199199E+01      0.101591945674E+22      0.101591945674E+22      0.101591945674E+22      0.101591945674E+22
     -0.198798798799E+01      0.101642197715E+22      0.101642197715E+22      0.101642197715E+22      0.101642197715E+22
     -0.198398398398E+01      0.101686276658E+22      0.101686276658E+22      0.101686276658E+22      0.101686276658E+22
     -0.197997997998E+01      0.101719344245E+22      0.101719344245E+22      0.101719344245E+22      0.101719344245E+22
     -0.197597597598E+01      0.101737688709E+22      0.101737688709E+22      0.101737688709E+22      0.101737688709E+22
     -0.197197197197E+01      0.101738576612E+22      0.101738576612E+22      0.101738576612E+22      0.101738576612E+22
     -0.196796796797E+01      0.101720077880E+22      0.101720077880E+22      0.101720077880E+22      0.101720077880E+22
     -0.196396396396E+01      0.101680898941E+22      0.101680898941E+22      0.101680898941E+22      0.101680898941E+22
     -0.195995995996E+01      0.101620245791E+22      0.101620245791E+22      0.101620245791E+22      0.101620245791E+22
     -0.195595595596E+01      0.101537724916E+22      0.101537724916E+22      0.101537724916E+22      0.101537724916E+22
     -0.195195195195E+01      0.101433278093E+22      0.101433278093E+22      0.101433278093E+22      0.101433278093E+22
     -0.194794794795E+01      0.101307139656E+22      0.101307139656E+22      0.101307139656E+22      0.101307139656E+22
     -0.194394394394E+01      0.101159803574E+22      0.101159803574E+22      0.101159803574E+22      0.101159803574E+22
     -0.193993993994E+01      0.100991992497E+22      0.100991992497E+22      0.100991992497E+22      0.100991992497E+22
     -0.193593593594E+01      0.100804629297E+22      0.100804629297E+22      0.100804629297E+22      0.100804629297E+22
     -0.193193193193E+01      0.100598819529E+22      0.100598819529E+22      0.100598819529E+22      0.100598819529E+22
     -0.192792792793E+01      0.100375856671E+22      0.100375856671E+22      0.100375856671E+22      0.100375856671E+22
     -0.192392392392E+01      0.100137258896E+22      0.100137258896E+22      0.100137258896E+22      0.100137258896E+22
     -0.191991991992E+01      0.998848372082E+21      0.998848372082E+21      0.998848372082E+21      0.998848372082E+21
     -0.191591591592E+01      0.996207831119E+21      0.996207831119E+21      0.996207831119E+21      0.996207831119E+21
     -0.191191191191E+01      0.993477535717E+21      0.993477535717E+21      0.993477535717E+21      0.993477535717E+21
     -0.190790790791E+01      0.990689252428E+21      0.990689252428E+21      0.990689252428E+21      0.990689252428E+21
     -0.190390390390E+01      0.987879905959E+21      0.987879905959E+21      0.987879905959E+21      0.987879905959E+21
     -0.189989989990E+01      0.985090755570E+21      0.985090755570E+21      0.985090755570E+21      0.985090755570E+21
     -0.189589589590E+01      0.982365703918E+21      0.982365703918E+21      0.982365703918E+21      0.982365703918E+21
     -0.189189189189E+01      0.979748807999E+21      0.979748807999E+21      0.979748807999E+21      0.979748807999E+21
     -0.188788788789E+01      0.977281222595E+21      0.977281222595E+21      0.977281222595E+21      0.977281222595E+21
     -0.188388388388E+01      0.974997949041E+21      0.974997949041E+21      0.974997949041E+21      0.974997949041E+21
     -0.187987987988E+01      0.972924854794E+21      0.972924854794E+21      0.972924854794E+21      0.972924854794E+21
     -0.187587587588E+01      0.971076439949E+21      0.971076439949E+21      0.971076439949E+21      0.971076439949E+21
     -0.187187187187E+01      0.969454732386E+21      0.969454732386E+21      0.969454732386E+21      0.969454732386E+21
     -0.186786786787E+01      0.968049494976E+21      0.968049494976E+21      0.968049494976E+21      0.968049494976E+21
     -0.186386386386E+01      0.966839662115E+21      0.966839662115E+21      0.966839662115E+21      0.966839662115E+21
     -0.185985985986E+01      0.965795657794E+21      0.965795657794E+21      0.965795657794E+21      0.965795657794E+21
     -0.185585585586E+01      0.964882066863E+21      0.964882066863E+21      0.964882066863E+21      0.964882066863E+21
     -0.185185185185E+01      0.964060102425E+21      0.964060102425E+21      0.964060102425E+21      0.964060102425E+21
     -0.184784784785E+01      0.963289457252E+21      0.963289457252E+21      0.963289457252E+21      0.963289457252E+21
     -0.184384384384E+01      0.962529407150E+21      0.962529407150E+21      0.962529407150E+21      0.962529407150E+21
     -0.183983983984E+01      0.961739358533E+21      0.961739358533E+21      0.961739358532E+21      0.961739358533E+21
     -0.183583583584E+01      0.960879287937E+21      0.960879287937E+21      0.960879287937E+21      0.960879287937E+21
     -0.183183183183E+01      0.959910612500E+21      0.959910612500E+21      0.959910612500E+21      0.959910612500E+21
     -0.182782782783E+01      0.958797914253E+21      0.958797914253E+21      0.958797914253E+21      0.958797914253E+21
     -0.182382382382E+01      0.957511643040E+21      0.957511643040E+21      0.957511643040E+21      0.957511643040E+21
     -0.181981981982E+01      0.956031529340E+21      0.956031529340E+21      0.956031529340E+21      0.956031529340E+21
     -0.181581581582E+01      0.954350069558E+21      0.954350069558E+21      0.954350069558E+21      0.954350069558E+21
     -0.181181181181E+01      0.952475219442E+21      0.952475219442E+21      0.952475219442E+21      0.952475219442E+21
     -0.180780780781E+01      0.950431425799E+21      0.950431425799E+21      0.950431425799E+21      0.950431425799E+21
     -0.180380380380E+01      0.948258363176E+21      0.948258363176E+21      0.948258363176E+21      0.948258363176E+21
     -0.179979979980E+01      0.946007176752E+21      0.946007176752E+21      0.946007176752E+21      0.946007176752E+21
     -0.179579579580E+01      0.943734568089E+21      0.943734568089E+21      0.943734568089E+21      0.943734568089E+21
     -0.179179179179E+01      0.941495568945E+21      0.941495568945E+21      0.941495568945E+21      0.941495568945E+21
     -0.178778778779E+01      0.939336202968E+21      0.939336202968E+21      0.939336202968E+21      0.939336202968E+21
     -0.178378378378E+01      0.937287340498E+21      0.937287340498E+21      0.937287340498E+21      0.937287340498E+21
     -0.177977977978E+01      0.935360870301E+21      0.935360870301E+21      0.935360870301E+21      0.935360870301E+21
     -0.177577577578E+01      0.933548875710E+21      0.933548875710E+21      0.933548875710E+21      0.933548875710E+21
     -0.177177177177E+01      0.931825907523E+21      0.931825907523E+21      0.931825907523E+21      0.931825907523E+21
     -0.176776776777E+01      0.930153829426E+21      0.930153829426E+21      0.930153829426E+21      0.930153829426E+21
     -0.176376376376E+01      0.928488217809E+21      0.928488217809E+21      0.928488217809E+21      0.928488217809E+21
     -0.175975975976E+01      0.926785040193E+21      0.926785040193E+21      0.926785040193E+21      0.926785040193E+21
     -0.175575575576E+01      0.925006368897E+21      0.925006368897E+21      0.925006368897E+21      0.925006368897E+21
     -0.175175175175E+01      0.923124189311E+21      0.923124189311E+21      0.923124189311E+21      0.923124189311E+21
     -0.174774774775E+01      0.921121849400E+21      0.921121849400E+21      0.921121849400E+21      0.921121849400E+21
     -0.174374374374E+01      0.918993241573E+21      0.918993241573E+21      0.918993241573E+21      0.918993241573E+21
     -0.173973973974E+01      0.916740277599E+21      0.916740277599E+21      0.916740277599E+21      0.916740277599E+21
     -0.173573573574E+01      0.914369509854E+21      0.914369509854E+21      0.914369509854E+21      0.914369509854E+21
     -0.173173173173E+01      0.911888819851E+21      0.911888819851E+21      0.911888819850E+21      0.911888819851E+21
     -0.172772772773E+01      0.909304949876E+21      0.909304949876E+21      0.909304949876E+21      0.909304949876E+21
     -0.172372372372E+01      0.906622355933E+21      0.906622355933E+21      0.906622355933E+21      0.906622355933E+21
     -0.171971971972E+01      0.903843496249E+21      0.903843496249E+21      0.903843496249E+21      0.903843496249E+21
     -0.171571571572E+01      0.900970326907E+21      0.900970326907E+21      0.900970326907E+21      0.900970326907E+21
     -0.171171171171E+01      0.898006524413E+21      0.898006524413E+21      0.898006524413E+21      0.898006524413E+21
     -0.170770770771E+01      0.894959835348E+21      0.894959835348E+21      0.894959835348E+21      0.894959835348E+21
     -0.170370370370E+01      0.891843974342E+21      0.891843974342E+21      0.891843974342E+21      0.891843974342E+21
     -0.169969969970E+01      0.888679631404E+21      0.888679631404E+21      0.888679631404E+21      0.888679631404E+21
     -0.169569569570E+01      0.885494362208E+21      0.885494362208E+21      0.885494362208E+21      0.885494362208E+21
     -0.169169169169E+01      0.882321361838E+21      0.882321361838E+21      0.882321361838E+21      0.882321361838E+21
     -0.168768768769E+01      0.879197309872E+21      0.879197309872E+21      0.879197309872E+21      0.879197309872E+21
     -0.168368368368E+01      0.876159589563E+21      0.876159589563E+21      0.876159589563E+21      0.876159589563E+21
     -0.167967967968E+01      0.873243223847E+21      0.873243223847E+21      0.873243223847E+21      0.873243223847E+21
     -0.167567567568E+01      0.870477860091E+21      0.870477860091E+21      0.870477860091E+21      0.870477860091E+21
     -0.167167167167E+01      0.867885107084E+21      0.867885107084E+21      0.867885107084E+21      0.867885107084E+21
     -0.166766766767E+01      0.865476502372E+21      0.865476502372E+21      0.865476502372E+21      0.865476502372E+21
     -0.166366366366E+01      0.863252359836E+21      0.863252359836E+21      0.863252359836E+21      0.863252359836E+21
     -0.165965965966E+01      0.861201688210E+21      0.861201688210E+21      0.861201688210E+21      0.861201688210E+21
     -0.165565565566E+01      0.859303251598E+21      0.859303251598E+21      0.859303251598E+21      0.859303251598E+21
     -0.165165165165E+01      0.857527658288E+21      0.857527658288E+21      0.857527658288E+21      0.857527658288E+21
     -0.164764764765E+01      0.855840150357E+21      0.855840150357E+21      0.855840150357E+21      0.855840150357E+21
     -0.164364364364E+01      0.854203593045E+21      0.854203593045E+21      0.854203593045E+21      0.854203593045E+21
     -0.163963963964E+01      0.852581103946E+21      0.852581103946E+21      0.852581103946E+21      0.852581103946E+21
     -0.163563563564E+01      0.850937859873E+21      0.850937859873E+21      0.850937859873E+21      0.850937859873E+21
     -0.163163163163E+01      0.849241858605E+21      0.849241858605E+21      0.849241858605E+21      0.849241858605E+21
     -0.162762762763E+01      0.847463721528E+21      0.847463721528E+21      0.847463721528E+21      0.847463721528E+21
     -0.162362362362E+01      0.845575900674E+21      0.845575900674E+21      0.845575900674E+21      0.845575900674E+21
     -0.161961961962E+01      0.843551810339E+21      0.843551810339E+21      0.843551810339E+21      0.843551810339E+21
     -0.161561561562E+01      0.841365395875E+21      0.841365395875E+21      0.841365395875E+21      0.841365395875E+21
     -0.161161161161E+01      0.838991494032E+21      0.838991494032E+21      0.838991494032E+21      0.838991494032E+21
     -0.160760760761E+01      0.836407089190E+21      0.836407089190E+21      0.836407089190E+21      0.836407089190E+21
     -0.160360360360E+01      0.833593304801E+21      0.833593304801E+21      0.833593304801E+21      0.833593304801E+21
     -0.159959959960E+01      0.830537758073E+21      0.830537758073E+21      0.830537758073E+21      0.830537758073E+21
     -0.159559559560E+01      0.827236792734E+21      0.827236792734E+21      0.827236792734E+21      0.827236792734E+21
     -0.159159159159E+01      0.823697105442E+21      0.823697105442E+21      0.823697105442E+21      0.823697105442E+21
     -0.158758758759E+01      0.819936387584E+21      0.819936387584E+21      0.819936387584E+21      0.819936387584E+21
     -0.158358358358E+01      0.815982788363E+21      0.815982788363E+21      0.815982788363E+21      0.815982788363E+21
     -0.157957957958E+01      0.811873226864E+21      0.811873226864E+21      0.811873226864E+21      0.811873226864E+21
     -0.157557557558E+01      0.807650792153E+21      0.807650792153E+21      0.807650792153E+21      0.807650792153E+21
     -0.157157157157E+01      0.803361624724E+21      0.803361624724E+21      0.803361624724E+21      0.803361624724E+21
     -0.156756756757E+01      0.799051734669E+21      0.799051734669E+21      0.799051734669E+21      0.799051734669E+21
     -0.156356356356E+01      0.794764169478E+21      0.794764169478E+21      0.794764169477E+21      0.794764169478E+21
     -0.155955955956E+01      0.790536813267E+21      0.790536813267E+21      0.790536813267E+21      0.790536813267E+21
     -0.155555555556E+01      0.786400920726E+21      0.786400920726E+21      0.786400920726E+21      0.786400920726E+21
     -0.155155155155E+01      0.782380317510E+21      0.782380317510E+21      0.782380317510E+21      0.782380317510E+21
     -0.154754754755E+01      0.778491084822E+21      0.778491084822E+21      0.778491084822E+21      0.778491084822E+21
     -0.154354354354E+01      0.774741518995E+21      0.774741518995E+21      0.774741518995E+21      0.774741518995E+21
     -0.153953953954E+01      0.771132216398E+21      0.771132216398E+21      0.771132216398E+21      0.771132216398E+21
     -0.153553553554E+01      0.767656249633E+21      0.767656249633E+21      0.767656249633E+21      0.767656249633E+21
     -0.153153153153E+01      0.764299524328E+21      0.764299524328E+21      0.764299524328E+21      0.764299524328E+21
     -0.152752752753E+01      0.761041486936E+21      0.761041486936E+21      0.761041486936E+21      0.761041486936E+21
     -0.152352352352E+01      0.757856357892E+21      0.757856357892E+21      0.757856357892E+21      0.757856357892E+21
     -0.151951951952E+01      0.754714981896E+21      0.754714981896E+21      0.754714981896E+21      0.754714981896E+21
     -0.151551551552E+01      0.751587236618E+21      0.751587236618E+21      0.751587236618E+21      0.751587236618E+21
     -0.151151151151E+01      0.748444764324E+21      0.748444764324E+21      0.748444764324E+21      0.748444764324E+21
     -0.150750750751E+01      0.745263641388E+21      0.745263641388E+21      0.745263641388E+21      0.745263641388E+21
     -0.150350350350E+01      0.742026529796E+21      0.742026529796E+21      0.742026529796E+21      0.742026529796E+21
     -0.149949949950E+01      0.738723895303E+21      0.738723895303E+21      0.738723895303E+21      0.738723895303E+21
     -0.149549549550E+01      0.735354031407E+21      0.735354031407E+21      0.735354031407E+21      0.735354031407E+21
     -0.149149149149E+01      0.731921864019E+21      0.731921864019E+21      0.731921864019E+21      0.731921864019E+21
     -0.148748748749E+01      0.728436768483E+21      0.728436768483E+21      0.728436768483E+21      0.728436768483E+21
     -0.148348348348E+01      0.724909838926E+21      0.724909838926E+21      0.724909838926E+21      0.724909838926E+21
     -0.147947947948E+01      0.721351152859E+21      0.721351152859E+21      0.721351152859E+21      0.721351152859E+21
     -0.147547547548E+01      0.717767545247E+21      0.717767545247E+21      0.717767545247E+21      0.717767545247E+21
     -0.147147147147E+01      0.714161257858E+21      0.714161257858E+21      0.714161257858E+21      0.714161257858E+21
     -0.146746746747E+01      0.710529606294E+21      0.710529606294E+21      0.710529606294E+21      0.710529606294E+21
     -0.146346346346E+01      0.706865572154E+21      0.706865572154E+21      0.706865572154E+21      0.706865572154E+21
     -0.145945945946E+01      0.703159043654E+21      0.703159043654E+21      0.703159043654E+21      0.703159043654E+21
     -0.145545545546E+01      0.699398338853E+21      0.699398338853E+21      0.699398338853E+21      0.699398338853E+21
     -0.145145145145E+01      0.695571664538E+21      0.695571664538E+21      0.695571664538E+21      0.695571664538E+21
     -0.144744744745E+01      0.691668271503E+21      0.691668271503E+21      0.691668271503E+21      0.691668271503E+21
     -0.144344344344E+01      0.687679219042E+21      0.687679219042E+21      0.687679219042E+21      0.687679219042E+21
     -0.143943943944E+01      0.683597804550E+21      0.683597804550E+21      0.683597804550E+21      0.683597804550E+21
     -0.143543543544E+01      0.679419803588E+21      0.679419803588E+21      0.679419803588E+21      0.679419803588E+21
     -0.143143143143E+01      0.675143679427E+21      0.675143679427E+21      0.675143679427E+21      0.675143679427E+21
     -0.142742742743E+01      0.670770864280E+21      0.670770864280E+21      0.670770864280E+21      0.670770864280E+21
     -0.142342342342E+01      0.666306115990E+21      0.666306115990E+21      0.666306115990E+21      0.666306115990E+21
     -0.141941941942E+01      0.661757853977E+21      0.661757853977E+21      0.661757853977E+21      0.661757853977E+21
     -0.141541541542E+01      0.657138314966E+21      0.657138314966E+21      0.657138314966E+21      0.657138314966E+21
     -0.141141141141E+01      0.652463365810E+21      0.652463365810E+21      0.652463365810E+21      0.652463365810E+21
     -0.140740740741E+01      0.647751870181E+21      0.647751870181E+21      0.647751870181E+21      0.647751870181E+21
     -0.140340340340E+01      0.643024609535E+21      0.643024609535E+21      0.643024609535E+21      0.643024609535E+21
     -0.139939939940E+01      0.638302873866E+21      0.638302873866E+21      0.638302873866E+21      0.638302873866E+21
     -0.139539539540E+01      0.633606928616E+21      0.633606928616E+21      0.633606928616E+21      0.633606928616E+21
     -0.139139139139E+01      0.628954603868E+21      0.628954603868E+21      0.628954603868E+21      0.628954603868E+21
     -0.138738738739E+01      0.624360230844E+21      0.624360230844E+21      0.624360230844E+21      0.624360230844E+21
     -0.138338338338E+01      0.619834078128E+21      0.619834078128E+21      0.619834078128E+21      0.619834078128E+21
     -0.137937937938E+01      0.615382338593E+21      0.615382338593E+21      0.615382338593E+21      0.615382338593E+21
     -0.137537537538E+01      0.611007615107E+21      0.611007615107E+21      0.611007615107E+21      0.611007615107E+21
     -0.137137137137E+01      0.606709771354E+21      0.606709771354E+21      0.606709771354E+21      0.606709771354E+21
     -0.136736736737E+01      0.602486967508E+21      0.602486967508E+21      0.602486967508E+21      0.602486967508E+21
     -0.136336336336E+01      0.598336693290E+21      0.598336693290E+21      0.598336693290E+21      0.598336693290E+21
     -0.135935935936E+01      0.594256639932E+21      0.594256639932E+21      0.594256639932E+21      0.594256639932E+21
     -0.135535535536E+01      0.590245308713E+21      0.590245308713E+21      0.590245308713E+21      0.590245308713E+21
     -0.135135135135E+01      0.586302323349E+21      0.586302323349E+21      0.586302323349E+21      0.586302323349E+21
     -0.134734734735E+01      0.582428479163E+21      0.582428479163E+21      0.582428479163E+21      0.582428479163E+21
