             #Energy(eV)           XX(uW/cm/K^2)           YY(uW/cm/K^2)           ZZ(uW/cm/K^2)      Average(uW/cm/K^2)
     -0.200000000000E+01      0.586106954905E-01      0.586106954905E-01      0.586106954905E-01      0.586106954905E-01
     -0.199599599600E+01      0.354793575379E-01      0.354793575379E-01      0.354793575379E-01      0.354793575379E-01
     -0.199199199199E+01      0.251407429260E-01      0.251407429260E-01      0.251407429260E-01      0.251407429260E-01
     -0.198798798799E+01      0.228386397966E-01      0.228386397966E-01      0.228386397966E-01      0.228386397966E-01
     -0.198398398398E+01      0.268330058840E-01      0.268330058840E-01      0.268330058840E-01      0.268330058840E-01
     -0.197997997998E+01      0.376351218126E-01      0.376351218126E-01      0.376351218126E-01      0.376351218126E-01
     -0.197597597598E+01      0.571116555730E-01      0.571116555730E-01      0.571116555730E-01      0.571116555730E-01
     -0.197197197197E+01      0.876845729360E-01      0.876845729360E-01      0.876845729360E-01      0.876845729360E-01
     -0.196796796797E+01      0.131724403448E+00      0.131724403448E+00      0.131724403448E+00      0.131724403448E+00
     -0.196396396396E+01      0.191141733925E+00      0.191141733925E+00      0.191141733925E+00      0.191141733925E+00
     -0.195995995996E+01      0.267136826227E+00      0.267136826227E+00      0.267136826227E+00      0.267136826227E+00
     -0.195595595596E+01      0.360060514463E+00      0.360060514463E+00      0.360060514463E+00      0.360060514463E+00
     -0.195195195195E+01      0.469352776557E+00      0.469352776557E+00      0.469352776557E+00      0.469352776557E+00
     -0.194794794795E+01      0.593540721776E+00      0.593540721776E+00      0.593540721776E+00      0.593540721776E+00
     -0.194394394394E+01      0.730284048071E+00      0.730284048071E+00      0.730284048071E+00      0.730284048071E+00
     -0.193993993994E+01      0.876452020946E+00      0.876452020946E+00      0.876452020946E+00      0.876452020946E+00
     -0.193593593594E+01      0.102820916878E+01      0.102820916878E+01      0.102820916878E+01      0.102820916878E+01
     -0.193193193193E+01      0.118108792750E+01      0.118108792750E+01      0.118108792750E+01      0.118108792750E+01
     -0.192792792793E+01      0.133004211612E+01      0.133004211612E+01      0.133004211613E+01      0.133004211612E+01
     -0.192392392392E+01      0.146950301531E+01      0.146950301531E+01      0.146950301531E+01      0.146950301531E+01
     -0.191991991992E+01      0.159348865319E+01      0.159348865319E+01      0.159348865319E+01      0.159348865319E+01
     -0.191591591592E+01      0.169583143918E+01      0.169583143918E+01      0.169583143918E+01      0.169583143918E+01
     -0.191191191191E+01      0.177057721764E+01      0.177057721764E+01      0.177057721764E+01      0.177057721764E+01
     -0.190790790791E+01      0.181256639989E+01      0.181256639989E+01      0.181256639989E+01      0.181256639989E+01
     -0.190390390390E+01      0.181814264923E+01      0.181814264923E+01      0.181814264923E+01      0.181814264923E+01
     -0.189989989990E+01      0.178586495992E+01      0.178586495992E+01      0.178586495992E+01      0.178586495992E+01
     -0.189589589590E+01      0.171705000509E+01      0.171705000509E+01      0.171705000509E+01      0.171705000509E+01
     -0.189189189189E+01      0.161596795982E+01      0.161596795982E+01      0.161596795982E+01      0.161596795982E+01
     -0.188788788789E+01      0.148957102188E+01      0.148957102188E+01      0.148957102188E+01      0.148957102188E+01
     -0.188388388388E+01      0.134674416031E+01      0.134674416031E+01      0.134674416031E+01      0.134674416031E+01
     -0.187987987988E+01      0.119720264302E+01      0.119720264302E+01      0.119720264302E+01      0.119720264302E+01
     -0.187587587588E+01      0.105027304859E+01      0.105027304859E+01      0.105027304859E+01      0.105027304859E+01
     -0.187187187187E+01      0.913836649620E+00      0.913836649620E+00      0.913836649620E+00      0.913836649620E+00
     -0.186786786787E+01      0.793663770737E+00      0.793663770737E+00      0.793663770737E+00      0.793663770737E+00
     -0.186386386386E+01      0.693242631219E+00      0.693242631219E+00      0.693242631219E+00      0.693242631219E+00
     -0.185985985986E+01      0.614058166617E+00      0.614058166617E+00      0.614058166617E+00      0.614058166617E+00
     -0.185585585586E+01      0.556164524313E+00      0.556164524313E+00      0.556164524313E+00      0.556164524313E+00
     -0.185185185185E+01      0.518854251740E+00      0.518854251740E+00      0.518854251740E+00      0.518854251740E+00
     -0.184784784785E+01      0.501253392479E+00      0.501253392479E+00      0.501253392479E+00      0.501253392479E+00
     -0.184384384384E+01      0.502731567944E+00      0.502731567944E+00      0.502731567944E+00      0.502731567944E+00
     -0.183983983984E+01      0.523072875078E+00      0.523072875078E+00      0.523072875078E+00      0.523072875078E+00
     -0.183583583584E+01      0.562388868027E+00      0.562388868027E+00      0.562388868027E+00      0.562388868027E+00
     -0.183183183183E+01      0.620776094951E+00      0.620776094951E+00      0.620776094951E+00      0.620776094951E+00
     -0.182782782783E+01      0.697750757776E+00      0.697750757776E+00      0.697750757776E+00      0.697750757776E+00
     -0.182382382382E+01      0.791552403364E+00      0.791552403364E+00      0.791552403364E+00      0.791552403364E+00
     -0.181981981982E+01      0.898494628792E+00      0.898494628792E+00      0.898494628791E+00      0.898494628792E+00
     -0.181581581582E+01      0.101261723797E+01      0.101261723797E+01      0.101261723797E+01      0.101261723797E+01
     -0.181181181181E+01      0.112590045312E+01      0.112590045312E+01      0.112590045312E+01      0.112590045312E+01
     -0.180780780781E+01      0.122918659139E+01      0.122918659139E+01      0.122918659139E+01      0.122918659139E+01
     -0.180380380380E+01      0.131372070488E+01      0.131372070488E+01      0.131372070488E+01      0.131372070488E+01
     -0.179979979980E+01      0.137294904143E+01      0.137294904143E+01      0.137294904143E+01      0.137294904143E+01
     -0.179579579580E+01      0.140403577482E+01      0.140403577482E+01      0.140403577482E+01      0.140403577482E+01
     -0.179179179179E+01      0.140858906534E+01      0.140858906534E+01      0.140858906534E+01      0.140858906534E+01
     -0.178778778779E+01      0.139234518945E+01      0.139234518945E+01      0.139234518945E+01      0.139234518945E+01
     -0.178378378378E+01      0.136393602909E+01      0.136393602909E+01      0.136393602909E+01      0.136393602909E+01
     -0.177977977978E+01      0.133317765604E+01      0.133317765604E+01      0.133317765604E+01      0.133317765604E+01
     -0.177577577578E+01      0.130941611825E+01      0.130941611825E+01      0.130941611825E+01      0.130941611825E+01
     -0.177177177177E+01      0.130032633155E+01      0.130032633155E+01      0.130032633155E+01      0.130032633155E+01
     -0.176776776777E+01      0.131129189936E+01      0.131129189936E+01      0.131129189936E+01      0.131129189936E+01
     -0.176376376376E+01      0.134526267886E+01      0.134526267886E+01      0.134526267886E+01      0.134526267886E+01
     -0.175975975976E+01      0.140290150939E+01      0.140290150939E+01      0.140290150939E+01      0.140290150939E+01
     -0.175575575576E+01      0.148288467382E+01      0.148288467382E+01      0.148288467382E+01      0.148288467382E+01
     -0.175175175175E+01      0.158231860082E+01      0.158231860082E+01      0.158231860082E+01      0.158231860082E+01
     -0.174774774775E+01      0.169728101871E+01      0.169728101871E+01      0.169728101871E+01      0.169728101871E+01
     -0.174374374374E+01      0.182345705273E+01      0.182345705273E+01      0.182345705273E+01      0.182345705273E+01
     -0.173973973974E+01      0.195676227143E+01      0.195676227143E+01      0.195676227143E+01      0.195676227143E+01
     -0.173573573574E+01      0.209379595585E+01      0.209379595585E+01      0.209379595585E+01      0.209379595585E+01
     -0.173173173173E+01      0.223199199195E+01      0.223199199195E+01      0.223199199195E+01      0.223199199195E+01
     -0.172772772773E+01      0.236942373733E+01      0.236942373733E+01      0.236942373733E+01      0.236942373733E+01
     -0.172372372372E+01      0.250432962616E+01      0.250432962616E+01      0.250432962616E+01      0.250432962616E+01
     -0.171971971972E+01      0.263451266071E+01      0.263451266071E+01      0.263451266071E+01      0.263451266071E+01
     -0.171571571572E+01      0.275680469545E+01      0.275680469545E+01      0.275680469545E+01      0.275680469545E+01
     -0.171171171171E+01      0.286677357365E+01      0.286677357365E+01      0.286677357365E+01      0.286677357365E+01
     -0.170770770771E+01      0.295879719690E+01      0.295879719690E+01      0.295879719690E+01      0.295879719690E+01
     -0.170370370370E+01      0.302654526490E+01      0.302654526490E+01      0.302654526490E+01      0.302654526490E+01
     -0.169969969970E+01      0.306381065348E+01      0.306381065348E+01      0.306381065348E+01      0.306381065348E+01
     -0.169569569570E+01      0.306553842906E+01      0.306553842906E+01      0.306553842906E+01      0.306553842906E+01
     -0.169169169169E+01      0.302883697049E+01      0.302883697049E+01      0.302883697049E+01      0.302883697049E+01
     -0.168768768769E+01      0.295374446005E+01      0.295374446005E+01      0.295374446005E+01      0.295374446005E+01
     -0.168368368368E+01      0.284357170263E+01      0.284357170263E+01      0.284357170263E+01      0.284357170263E+01
     -0.167967967968E+01      0.270473569377E+01      0.270473569377E+01      0.270473569377E+01      0.270473569377E+01
     -0.167567567568E+01      0.254611092931E+01      0.254611092931E+01      0.254611092931E+01      0.254611092931E+01
     -0.167167167167E+01      0.237802839189E+01      0.237802839189E+01      0.237802839189E+01      0.237802839189E+01
     -0.166766766767E+01      0.221112282381E+01      0.221112282381E+01      0.221112282381E+01      0.221112282381E+01
     -0.166366366366E+01      0.205525276910E+01      0.205525276910E+01      0.205525276910E+01      0.205525276910E+01
     -0.165965965966E+01      0.191868880797E+01      0.191868880797E+01      0.191868880797E+01      0.191868880797E+01
     -0.165565565566E+01      0.180768905092E+01      0.180768905092E+01      0.180768905092E+01      0.180768905092E+01
     -0.165165165165E+01      0.172647873551E+01      0.172647873551E+01      0.172647873551E+01      0.172647873551E+01
     -0.164764764765E+01      0.167755634722E+01      0.167755634722E+01      0.167755634722E+01      0.167755634722E+01
     -0.164364364364E+01      0.166219323416E+01      0.166219323416E+01      0.166219323416E+01      0.166219323416E+01
     -0.163963963964E+01      0.168098833238E+01      0.168098833238E+01      0.168098833238E+01      0.168098833238E+01
     -0.163563563564E+01      0.173436980147E+01      0.173436980147E+01      0.173436980147E+01      0.173436980147E+01
     -0.163163163163E+01      0.182297310842E+01      0.182297310842E+01      0.182297310842E+01      0.182297310842E+01
     -0.162762762763E+01      0.194784932030E+01      0.194784932030E+01      0.194784932030E+01      0.194784932030E+01
     -0.162362362362E+01      0.211046583408E+01      0.211046583408E+01      0.211046583408E+01      0.211046583408E+01
     -0.161961961962E+01      0.231246738413E+01      0.231246738413E+01      0.231246738413E+01      0.231246738413E+01
     -0.161561561562E+01      0.255518354490E+01      0.255518354490E+01      0.255518354490E+01      0.255518354490E+01
     -0.161161161161E+01      0.283890849475E+01      0.283890849475E+01      0.283890849475E+01      0.283890849475E+01
     -0.160760760761E+01      0.316203758587E+01      0.316203758587E+01      0.316203758587E+01      0.316203758587E+01
     -0.160360360360E+01      0.352021151689E+01      0.352021151689E+01      0.352021151689E+01      0.352021151689E+01
     -0.159959959960E+01      0.390567215577E+01      0.390567215577E+01      0.390567215577E+01      0.390567215577E+01
     -0.159559559560E+01      0.430704841690E+01      0.430704841690E+01      0.430704841690E+01      0.430704841690E+01
     -0.159159159159E+01      0.470974351132E+01      0.470974351132E+01      0.470974351132E+01      0.470974351132E+01
     -0.158758758759E+01      0.509698042732E+01      0.509698042732E+01      0.509698042732E+01      0.509698042732E+01
     -0.158358358358E+01      0.545140202957E+01      0.545140202957E+01      0.545140202956E+01      0.545140202956E+01
     -0.157957957958E+01      0.575696354280E+01      0.575696354280E+01      0.575696354280E+01      0.575696354280E+01
     -0.157557557558E+01      0.600075651494E+01      0.600075651494E+01      0.600075651494E+01      0.600075651494E+01
     -0.157157157157E+01      0.617440690796E+01      0.617440690796E+01      0.617440690796E+01      0.617440690796E+01
     -0.156756756757E+01      0.627479982107E+01      0.627479982107E+01      0.627479982107E+01      0.627479982107E+01
     -0.156356356356E+01      0.630406042651E+01      0.630406042651E+01      0.630406042651E+01      0.630406042651E+01
     -0.155955955956E+01      0.626889971768E+01      0.626889971768E+01      0.626889971768E+01      0.626889971768E+01
     -0.155555555556E+01      0.617955337371E+01      0.617955337371E+01      0.617955337371E+01      0.617955337371E+01
     -0.155155155155E+01      0.604857189231E+01      0.604857189231E+01      0.604857189231E+01      0.604857189231E+01
     -0.154754754755E+01      0.588966954179E+01      0.588966954179E+01      0.588966954179E+01      0.588966954179E+01
     -0.154354354354E+01      0.571674703224E+01      0.571674703224E+01      0.571674703224E+01      0.571674703224E+01
     -0.153953953954E+01      0.554311303092E+01      0.554311303092E+01      0.554311303092E+01      0.554311303092E+01
     -0.153553553554E+01      0.538087346336E+01      0.538087346336E+01      0.538087346336E+01      0.538087346336E+01
     -0.153153153153E+01      0.524044220936E+01      0.524044220936E+01      0.524044220936E+01      0.524044220936E+01
     -0.152752752753E+01      0.513014043140E+01      0.513014043140E+01      0.513014043140E+01      0.513014043140E+01
     -0.152352352352E+01      0.505587598030E+01      0.505587598030E+01      0.505587598030E+01      0.505587598030E+01
     -0.151951951952E+01      0.502091642638E+01      0.502091642638E+01      0.502091642638E+01      0.502091642638E+01
     -0.151551551552E+01      0.502578651198E+01      0.502578651198E+01      0.502578651198E+01      0.502578651198E+01
     -0.151151151151E+01      0.506833503312E+01      0.506833503312E+01      0.506833503312E+01      0.506833503312E+01
     -0.150750750751E+01      0.514402435977E+01      0.514402435977E+01      0.514402435977E+01      0.514402435977E+01
     -0.150350350350E+01      0.524648621334E+01      0.524648621334E+01      0.524648621334E+01      0.524648621334E+01
     -0.149949949950E+01      0.536834641698E+01      0.536834641698E+01      0.536834641698E+01      0.536834641698E+01
     -0.149549549550E+01      0.550224833642E+01      0.550224833642E+01      0.550224833642E+01      0.550224833642E+01
     -0.149149149149E+01      0.564192147885E+01      0.564192147885E+01      0.564192147885E+01      0.564192147885E+01
     -0.148748748749E+01      0.578308699112E+01      0.578308699112E+01      0.578308699112E+01      0.578308699112E+01
     -0.148348348348E+01      0.592400033474E+01      0.592400033474E+01      0.592400033474E+01      0.592400033474E+01
     -0.147947947948E+01      0.606551111529E+01      0.606551111529E+01      0.606551111529E+01      0.606551111529E+01
     -0.147547547548E+01      0.621064410965E+01      0.621064410965E+01      0.621064410965E+01      0.621064410965E+01
     -0.147147147147E+01      0.636382592777E+01      0.636382592777E+01      0.636382592777E+01      0.636382592777E+01
     -0.146746746747E+01      0.652995469721E+01      0.652995469721E+01      0.652995469721E+01      0.652995469721E+01
     -0.146346346346E+01      0.671351656613E+01      0.671351656613E+01      0.671351656613E+01      0.671351656613E+01
     -0.145945945946E+01      0.691790211588E+01      0.691790211588E+01      0.691790211588E+01      0.691790211588E+01
     -0.145545545546E+01      0.714499490860E+01      0.714499490860E+01      0.714499490860E+01      0.714499490860E+01
     -0.145145145145E+01      0.739502263756E+01      0.739502263756E+01      0.739502263756E+01      0.739502263756E+01
     -0.144744744745E+01      0.766660047334E+01      0.766660047334E+01      0.766660047334E+01      0.766660047334E+01
     -0.144344344344E+01      0.795686810004E+01      0.795686810004E+01      0.795686810004E+01      0.795686810004E+01
     -0.143943943944E+01      0.826162970591E+01      0.826162970591E+01      0.826162970591E+01      0.826162970591E+01
     -0.143543543544E+01      0.857544481638E+01      0.857544481638E+01      0.857544481638E+01      0.857544481638E+01
     -0.143143143143E+01      0.889167430584E+01      0.889167430584E+01      0.889167430584E+01      0.889167430584E+01
     -0.142742742743E+01      0.920254093213E+01      0.920254093213E+01      0.920254093213E+01      0.920254093213E+01
     -0.142342342342E+01      0.949929660937E+01      0.949929660937E+01      0.949929660937E+01      0.949929660937E+01
     -0.141941941942E+01      0.977258402130E+01      0.977258402130E+01      0.977258402130E+01      0.977258402130E+01
     -0.141541541542E+01      0.100130343086E+02      0.100130343086E+02      0.100130343086E+02      0.100130343086E+02
     -0.141141141141E+01      0.102120664708E+02      0.102120664708E+02      0.102120664708E+02      0.102120664708E+02
     -0.140740740741E+01      0.103627720753E+02      0.103627720753E+02      0.103627720753E+02      0.103627720753E+02
     -0.140340340340E+01      0.104607112113E+02      0.104607112113E+02      0.104607112113E+02      0.104607112113E+02
     -0.139939939940E+01      0.105044373519E+02      0.105044373519E+02      0.105044373519E+02      0.105044373519E+02
     -0.139539539540E+01      0.104956180619E+02      0.104956180619E+02      0.104956180619E+02      0.104956180619E+02
     -0.139139139139E+01      0.104387114144E+02      0.104387114144E+02      0.104387114144E+02      0.104387114144E+02
     -0.138738738739E+01      0.103402634963E+02      0.103402634963E+02      0.103402634963E+02      0.103402634963E+02
     -0.138338338338E+01      0.102079757607E+02      0.102079757607E+02      0.102079757607E+02      0.102079757607E+02
     -0.137937937938E+01      0.100497285728E+02      0.100497285728E+02      0.100497285728E+02      0.100497285728E+02
     -0.137537537538E+01      0.987273447354E+01      0.987273447354E+01      0.987273447354E+01      0.987273447354E+01
     -0.137137137137E+01      0.968294386915E+01      0.968294386915E+01      0.968294386915E+01      0.968294386915E+01
     -0.136736736737E+01      0.948475762116E+01      0.948475762116E+01      0.948475762116E+01      0.948475762116E+01
     -0.136336336336E+01      0.928103480588E+01      0.928103480588E+01      0.928103480588E+01      0.928103480588E+01
     -0.135935935936E+01      0.907333299570E+01      0.907333299570E+01      0.907333299570E+01      0.907333299570E+01
     -0.135535535536E+01      0.886228949826E+01      0.886228949826E+01      0.886228949826E+01      0.886228949826E+01
     -0.135135135135E+01      0.864804698528E+01      0.864804698528E+01      0.864804698528E+01      0.864804698528E+01
     -0.134734734735E+01      0.843064400992E+01      0.843064400992E+01      0.843064400992E+01      0.843064400992E+01
