#Thickness(um)           XX(%)           YY(%)           ZZ(%)      Average(%)
     0.00000          0.0000          0.0000          0.0000          0.0000
     0.01000          3.8791          3.8791          3.8791          3.8791
     0.02000          6.6389          6.6389          6.6389          6.6389
     0.03000          8.7769          8.7769          8.7769          8.7769
     0.04000         10.5305         10.5305         10.5305         10.5305
     0.05000         12.0223         12.0223         12.0223         12.0223
     0.06000         13.3212         13.3212         13.3212         13.3212
     0.07000         14.4698         14.4698         14.4698         14.4698
     0.08000         15.4967         15.4967         15.4967         15.4967
     0.09000         16.4222         16.4222         16.4222         16.4222
     0.10000         17.2617         17.2617         17.2617         17.2617
     0.11000         18.0275         18.0275         18.0275         18.0275
     0.12000         18.7292         18.7292         18.7292         18.7292
     0.13000         19.3748         19.3748         19.3748         19.3748
     0.14000         19.9709         19.9709         19.9709         19.9709
     0.15000         20.5233         20.5233         20.5233         20.5233
     0.16000         21.0365         21.0365         21.0365         21.0365
     0.17000         21.5148         21.5148         21.5148         21.5148
     0.18000         21.9616         21.9616         21.9616         21.9616
     0.19000         22.3799         22.3799         22.3799         22.3799
     0.20000         22.7725         22.7725         22.7725         22.7725
     0.21000         23.1415         23.1415         23.1415         23.1415
     0.22000         23.4891         23.4891         23.4891         23.4891
     0.23000         23.8171         23.8171         23.8171         23.8171
     0.24000         24.1270         24.1270         24.1270         24.1270
     0.25000         24.4203         24.4203         24.4203         24.4203
     0.26000         24.6982         24.6982         24.6982         24.6982
     0.27000         24.9619         24.9619         24.9619         24.9619
     0.28000         25.2124         25.2124         25.2124         25.2124
     0.29000         25.4506         25.4506         25.4506         25.4506
     0.30000         25.6774         25.6774         25.6774         25.6774
     0.31000         25.8935         25.8935         25.8935         25.8935
     0.32000         26.0996         26.0996         26.0996         26.0996
     0.33000         26.2963         26.2963         26.2963         26.2963
     0.34000         26.4842         26.4842         26.4842         26.4842
     0.35000         26.6639         26.6639         26.6639         26.6639
     0.36000         26.8357         26.8357         26.8357         26.8357
     0.37000         27.0003         27.0003         27.0003         27.0003
     0.38000         27.1579         27.1579         27.1579         27.1579
     0.39000         27.3090         27.3090         27.3090         27.3090
     0.40000         27.4538         27.4538         27.4538         27.4538
     0.41000         27.5928         27.5928         27.5928         27.5928
     0.42000         27.7262         27.7262         27.7262         27.7262
     0.43000         27.8544         27.8544         27.8544         27.8544
     0.44000         27.9775         27.9775         27.9775         27.9775
     0.45000         28.0958         28.0958         28.0958         28.0958
     0.46000         28.2096         28.2096         28.2096         28.2096
     0.47000         28.3190         28.3190         28.3190         28.3190
     0.48000         28.4243         28.4243         28.4243         28.4243
     0.49000         28.5257         28.5257         28.5257         28.5257
     0.50000         28.6233         28.6233         28.6233         28.6233
     0.51000         28.7173         28.7173         28.7173         28.7173
     0.52000         28.8078         28.8078         28.8078         28.8078
     0.53000         28.8951         28.8951         28.8951         28.8951
     0.54000         28.9792         28.9792         28.9792         28.9792
     0.55000         29.0603         29.0603         29.0603         29.0603
     0.56000         29.1384         29.1384         29.1384         29.1384
     0.57000         29.2139         29.2139         29.2139         29.2139
     0.58000         29.2866         29.2866         29.2866         29.2866
     0.59000         29.3568         29.3568         29.3568         29.3568
     0.60000         29.4245         29.4245         29.4245         29.4245
     0.61000         29.4899         29.4899         29.4899         29.4899
     0.62000         29.5531         29.5531         29.5531         29.5531
     0.63000         29.6140         29.6140         29.6140         29.6140
     0.64000         29.6729         29.6729         29.6729         29.6729
     0.65000         29.7297         29.7297         29.7297         29.7297
     0.66000         29.7846         29.7846         29.7846         29.7846
     0.67000         29.8377         29.8377         29.8377         29.8377
     0.68000         29.8890         29.8890         29.8890         29.8890
     0.69000         29.9385         29.9385         29.9385         29.9385
     0.70000         29.9864         29.9864         29.9864         29.9864
     0.71000         30.0327         30.0327         30.0327         30.0327
     0.72000         30.0774         30.0774         30.0774         30.0774
     0.73000         30.1207         30.1207         30.1207         30.1207
     0.74000         30.1625         30.1625         30.1625         30.1625
     0.75000         30.2029         30.2029         30.2029         30.2029
     0.76000         30.2420         30.2420         30.2420         30.2420
     0.77000         30.2799         30.2799         30.2799         30.2799
     0.78000         30.3165         30.3165         30.3165         30.3165
     0.79000         30.3519         30.3519         30.3519         30.3519
     0.80000         30.3861         30.3861         30.3861         30.3861
     0.81000         30.4192         30.4192         30.4192         30.4192
     0.82000         30.4513         30.4513         30.4513         30.4513
     0.83000         30.4823         30.4823         30.4823         30.4823
     0.84000         30.5123         30.5123         30.5123         30.5123
     0.85000         30.5414         30.5414         30.5414         30.5414
     0.86000         30.5695         30.5695         30.5695         30.5695
     0.87000         30.5967         30.5967         30.5967         30.5967
     0.88000         30.6231         30.6231         30.6231         30.6231
     0.89000         30.6486         30.6486         30.6486         30.6486
     0.90000         30.6733         30.6733         30.6733         30.6733
     0.91000         30.6972         30.6972         30.6972         30.6972
     0.92000         30.7203         30.7203         30.7203         30.7203
     0.93000         30.7427         30.7427         30.7427         30.7427
     0.94000         30.7644         30.7644         30.7644         30.7644
     0.95000         30.7855         30.7855         30.7855         30.7855
     0.96000         30.8058         30.8058         30.8058         30.8058
     0.97000         30.8255         30.8255         30.8255         30.8255
     0.98000         30.8446         30.8446         30.8446         30.8446
     0.99000         30.8631         30.8631         30.8631         30.8631
     1.00000         30.8810         30.8810         30.8810         30.8810
     1.01000         30.8984         30.8984         30.8984         30.8984
     1.02000         30.9152         30.9152         30.9152         30.9152
     1.03000         30.9315         30.9315         30.9315         30.9315
     1.04000         30.9473         30.9473         30.9473         30.9473
     1.05000         30.9626         30.9626         30.9626         30.9626
     1.06000         30.9774         30.9774         30.9774         30.9774
     1.07000         30.9917         30.9917         30.9917         30.9917
     1.08000         31.0057         31.0057         31.0057         31.0057
     1.09000         31.0191         31.0191         31.0191         31.0191
     1.10000         31.0322         31.0322         31.0322         31.0322
     1.11000         31.0449         31.0449         31.0449         31.0449
     1.12000         31.0571         31.0571         31.0571         31.0571
     1.13000         31.0690         31.0690         31.0690         31.0690
     1.14000         31.0805         31.0805         31.0805         31.0805
     1.15000         31.0917         31.0917         31.0917         31.0917
     1.16000         31.1025         31.1025         31.1025         31.1025
     1.17000         31.1130         31.1130         31.1130         31.1130
     1.18000         31.1232         31.1232         31.1232         31.1232
     1.19000         31.1331         31.1331         31.1331         31.1331
     1.20000         31.1427         31.1427         31.1427         31.1427
     1.21000         31.1519         31.1519         31.1519         31.1519
     1.22000         31.1609         31.1609         31.1609         31.1609
     1.23000         31.1696         31.1696         31.1696         31.1696
     1.24000         31.1781         31.1781         31.1781         31.1781
     1.25000         31.1863         31.1863         31.1863         31.1863
     1.26000         31.1942         31.1942         31.1942         31.1942
     1.27000         31.2019         31.2019         31.2019         31.2019
     1.28000         31.2094         31.2094         31.2094         31.2094
     1.29000         31.2166         31.2166         31.2166         31.2166
     1.30000         31.2237         31.2237         31.2237         31.2237
     1.31000         31.2305         31.2305         31.2305         31.2305
     1.32000         31.2371         31.2371         31.2371         31.2371
     1.33000         31.2435         31.2435         31.2435         31.2435
     1.34000         31.2497         31.2497         31.2497         31.2497
     1.35000         31.2557         31.2557         31.2557         31.2557
     1.36000         31.2616         31.2616         31.2616         31.2616
     1.37000         31.2673         31.2673         31.2673         31.2673
     1.38000         31.2728         31.2728         31.2728         31.2728
     1.39000         31.2781         31.2781         31.2781         31.2781
     1.40000         31.2833         31.2833         31.2833         31.2833
     1.41000         31.2883         31.2883         31.2883         31.2883
     1.42000         31.2932         31.2932         31.2932         31.2932
     1.43000         31.2979         31.2979         31.2979         31.2979
     1.44000         31.3025         31.3025         31.3025         31.3025
     1.45000         31.3069         31.3069         31.3069         31.3069
     1.46000         31.3113         31.3113         31.3113         31.3113
     1.47000         31.3154         31.3154         31.3154         31.3154
     1.48000         31.3195         31.3195         31.3195         31.3195
     1.49000         31.3235         31.3235         31.3235         31.3235
     1.50000         31.3273         31.3273         31.3273         31.3273
     1.51000         31.3310         31.3310         31.3310         31.3310
     1.52000         31.3346         31.3346         31.3346         31.3346
     1.53000         31.3381         31.3381         31.3381         31.3381
     1.54000         31.3415         31.3415         31.3415         31.3415
     1.55000         31.3448         31.3448         31.3448         31.3448
     1.56000         31.3480         31.3480         31.3480         31.3480
     1.57000         31.3511         31.3511         31.3511         31.3511
     1.58000         31.3541         31.3541         31.3541         31.3541
     1.59000         31.3570         31.3570         31.3570         31.3570
     1.60000         31.3598         31.3598         31.3598         31.3598
     1.61000         31.3626         31.3626         31.3626         31.3626
     1.62000         31.3652         31.3652         31.3652         31.3652
     1.63000         31.3678         31.3678         31.3678         31.3678
     1.64000         31.3703         31.3703         31.3703         31.3703
     1.65000         31.3728         31.3728         31.3728         31.3728
     1.66000         31.3752         31.3752         31.3752         31.3752
     1.67000         31.3775         31.3775         31.3775         31.3775
     1.68000         31.3797         31.3797         31.3797         31.3797
     1.69000         31.3819         31.3819         31.3819         31.3819
     1.70000         31.3840         31.3840         31.3840         31.3840
     1.71000         31.3860         31.3860         31.3860         31.3860
     1.72000         31.3880         31.3880         31.3880         31.3880
     1.73000         31.3899         31.3899         31.3899         31.3899
     1.74000         31.3918         31.3918         31.3918         31.3918
     1.75000         31.3936         31.3936         31.3936         31.3936
     1.76000         31.3953         31.3953         31.3953         31.3953
     1.77000         31.3970         31.3970         31.3970         31.3970
     1.78000         31.3987         31.3987         31.3987         31.3987
     1.79000         31.4003         31.4003         31.4003         31.4003
     1.80000         31.4019         31.4019         31.4019         31.4019
     1.81000         31.4034         31.4034         31.4034         31.4034
     1.82000         31.4049         31.4049         31.4049         31.4049
     1.83000         31.4063         31.4063         31.4063         31.4063
     1.84000         31.4077         31.4077         31.4077         31.4077
     1.85000         31.4090         31.4090         31.4090         31.4090
     1.86000         31.4104         31.4104         31.4104         31.4104
     1.87000         31.4116         31.4116         31.4116         31.4116
     1.88000         31.4129         31.4129         31.4129         31.4129
     1.89000         31.4141         31.4141         31.4141         31.4141
     1.90000         31.4152         31.4152         31.4152         31.4152
     1.91000         31.4164         31.4164         31.4164         31.4164
     1.92000         31.4175         31.4175         31.4175         31.4175
     1.93000         31.4185         31.4185         31.4185         31.4185
     1.94000         31.4196         31.4196         31.4196         31.4196
     1.95000         31.4206         31.4206         31.4206         31.4206
     1.96000         31.4215         31.4215         31.4215         31.4215
     1.97000         31.4225         31.4225         31.4225         31.4225
     1.98000         31.4234         31.4234         31.4234         31.4234
     1.99000         31.4243         31.4243         31.4243         31.4243
     2.00000         31.4252         31.4252         31.4252         31.4252
     2.01000         31.4260         31.4260         31.4260         31.4260
     2.02000         31.4268         31.4268         31.4268         31.4268
     2.03000         31.4276         31.4276         31.4276         31.4276
     2.04000         31.4284         31.4284         31.4284         31.4284
     2.05000         31.4292         31.4292         31.4292         31.4292
     2.06000         31.4299         31.4299         31.4299         31.4299
     2.07000         31.4306         31.4306         31.4306         31.4306
     2.08000         31.4313         31.4313         31.4313         31.4313
     2.09000         31.4320         31.4320         31.4320         31.4320
     2.10000         31.4326         31.4326         31.4326         31.4326
     2.11000         31.4332         31.4332         31.4332         31.4332
     2.12000         31.4338         31.4338         31.4338         31.4338
     2.13000         31.4344         31.4344         31.4344         31.4344
     2.14000         31.4350         31.4350         31.4350         31.4350
     2.15000         31.4356         31.4356         31.4356         31.4356
     2.16000         31.4361         31.4361         31.4361         31.4361
     2.17000         31.4367         31.4367         31.4367         31.4367
     2.18000         31.4372         31.4372         31.4372         31.4372
     2.19000         31.4377         31.4377         31.4377         31.4377
     2.20000         31.4382         31.4382         31.4382         31.4382
     2.21000         31.4386         31.4386         31.4386         31.4386
     2.22000         31.4391         31.4391         31.4391         31.4391
     2.23000         31.4395         31.4395         31.4395         31.4395
     2.24000         31.4400         31.4400         31.4400         31.4400
     2.25000         31.4404         31.4404         31.4404         31.4404
     2.26000         31.4408         31.4408         31.4408         31.4408
     2.27000         31.4412         31.4412         31.4412         31.4412
     2.28000         31.4416         31.4416         31.4416         31.4416
     2.29000         31.4420         31.4420         31.4420         31.4420
     2.30000         31.4423         31.4423         31.4423         31.4423
     2.31000         31.4427         31.4427         31.4427         31.4427
     2.32000         31.4430         31.4430         31.4430         31.4430
     2.33000         31.4433         31.4433         31.4433         31.4433
     2.34000         31.4437         31.4437         31.4437         31.4437
     2.35000         31.4440         31.4440         31.4440         31.4440
     2.36000         31.4443         31.4443         31.4443         31.4443
     2.37000         31.4446         31.4446         31.4446         31.4446
     2.38000         31.4449         31.4449         31.4449         31.4449
     2.39000         31.4452         31.4452         31.4452         31.4452
     2.40000         31.4454         31.4454         31.4454         31.4454
     2.41000         31.4457         31.4457         31.4457         31.4457
     2.42000         31.4460         31.4460         31.4460         31.4460
     2.43000         31.4462         31.4462         31.4462         31.4462
     2.44000         31.4464         31.4464         31.4464         31.4464
     2.45000         31.4467         31.4467         31.4467         31.4467
     2.46000         31.4469         31.4469         31.4469         31.4469
     2.47000         31.4471         31.4471         31.4471         31.4471
     2.48000         31.4474         31.4474         31.4474         31.4474
     2.49000         31.4476         31.4476         31.4476         31.4476
     2.50000         31.4478         31.4478         31.4478         31.4478
     2.51000         31.4480         31.4480         31.4480         31.4480
     2.52000         31.4482         31.4482         31.4482         31.4482
     2.53000         31.4484         31.4484         31.4484         31.4484
     2.54000         31.4485         31.4485         31.4485         31.4485
     2.55000         31.4487         31.4487         31.4487         31.4487
     2.56000         31.4489         31.4489         31.4489         31.4489
     2.57000         31.4491         31.4491         31.4491         31.4491
