 #energy          xx(cm^-1)       yy(cm^-1)       zz(cm^-1)       xy(cm^-1)       yz(cm^-1)       zx(cm^-1)
  0.92000000E+00  0.00000000E+00  0.00000000E+00  0.00000000E+00  0.00000000E+00  0.00000000E+00  0.00000000E+00
  0.93370000E+00  0.28799442E+01  0.28799442E+01  0.28799442E+01  0.00000000E+00  0.00000000E+00  0.00000000E+00
  0.94750000E+00  0.11550169E+02  0.11550169E+02  0.11550169E+02  0.00000000E+00  0.00000000E+00  0.00000000E+00
  0.96120000E+00  0.25998824E+02  0.25998824E+02  0.25998824E+02  0.00000000E+00  0.00000000E+00  0.00000000E+00
  0.97500000E+00  0.46472848E+02  0.46472848E+02  0.46472848E+02  0.00000000E+00  0.00000000E+00  0.00000000E+00
  0.98870000E+00  0.72942492E+02  0.72942492E+02  0.72942492E+02  0.00000000E+00  0.00000000E+00  0.00000000E+00
  0.10025000E+01  0.10585142E+03  0.10585142E+03  0.10585142E+03  0.00000000E+00  0.00000000E+00  0.00000000E+00
  0.10162000E+01  0.14514907E+03  0.14514907E+03  0.14514907E+03  0.00000000E+00  0.00000000E+00  0.00000000E+00
  0.10300000E+01  0.19166047E+03  0.19166047E+03  0.19166047E+03  0.00000000E+00  0.00000000E+00  0.00000000E+00
  0.10437000E+01  0.24517151E+03  0.24517151E+03  0.24517151E+03  0.00000000E+00  0.00000000E+00  0.00000000E+00
  0.10575000E+01  0.30675265E+03  0.30675265E+03  0.30675265E+03  0.00000000E+00  0.00000000E+00  0.00000000E+00
  0.10712000E+01  0.37661501E+03  0.37661501E+03  0.37661501E+03  0.00000000E+00  0.00000000E+00  0.00000000E+00
  0.10850000E+01  0.45566524E+03  0.45566524E+03  0.45566524E+03  0.00000000E+00  0.00000000E+00  0.00000000E+00
  0.10987000E+01  0.54441418E+03  0.54441418E+03  0.54441418E+03  0.00000000E+00  0.00000000E+00  0.00000000E+00
  0.11125000E+01  0.64431807E+03  0.64431807E+03  0.64431807E+03  0.00000000E+00  0.00000000E+00  0.00000000E+00
  0.11262000E+01  0.75605758E+03  0.75605758E+03  0.75605758E+03  0.00000000E+00  0.00000000E+00  0.00000000E+00
  0.11399000E+01  0.88104634E+03  0.88104634E+03  0.88104634E+03  0.00000000E+00  0.00000000E+00  0.00000000E+00
  0.11537000E+01  0.10216759E+04  0.10216759E+04  0.10216759E+04  0.00000000E+00  0.00000000E+00  0.00000000E+00
  0.11674000E+01  0.11789448E+04  0.11789448E+04  0.11789448E+04  0.00000000E+00  0.00000000E+00  0.00000000E+00
  0.11812000E+01  0.13557270E+04  0.13557270E+04  0.13557270E+04  0.00000000E+00  0.00000000E+00  0.00000000E+00
  0.11949000E+01  0.15541027E+04  0.15541027E+04  0.15541027E+04  0.00000000E+00  0.00000000E+00  0.00000000E+00
  0.12087000E+01  0.17785093E+04  0.17785093E+04  0.17785093E+04  0.00000000E+00  0.00000000E+00  0.00000000E+00
  0.12224000E+01  0.20315196E+04  0.20315196E+04  0.20315196E+04  0.00000000E+00  0.00000000E+00  0.00000000E+00
  0.12362000E+01  0.23194563E+04  0.23194563E+04  0.23194563E+04  0.00000000E+00  0.00000000E+00  0.00000000E+00
  0.12499000E+01  0.26465414E+04  0.26465414E+04  0.26465414E+04  0.00000000E+00  0.00000000E+00  0.00000000E+00
  0.12637000E+01  0.30214413E+04  0.30214413E+04  0.30214413E+04  0.00000000E+00  0.00000000E+00  0.00000000E+00
  0.12774000E+01  0.34521382E+04  0.34521382E+04  0.34521382E+04  0.00000000E+00  0.00000000E+00  0.00000000E+00
  0.12912000E+01  0.39497064E+04  0.39497064E+04  0.39497064E+04  0.00000000E+00  0.00000000E+00  0.00000000E+00
  0.13049000E+01  0.45266277E+04  0.45266277E+04  0.45266277E+04  0.00000000E+00  0.00000000E+00  0.00000000E+00
  0.13186000E+01  0.51989188E+04  0.51989188E+04  0.51989188E+04  0.00000000E+00  0.00000000E+00  0.00000000E+00
  0.13324000E+01  0.59876471E+04  0.59876471E+04  0.59876471E+04  0.00000000E+00  0.00000000E+00  0.00000000E+00
  0.13461000E+01  0.69130249E+04  0.69130249E+04  0.69130249E+04  0.00000000E+00  0.00000000E+00  0.00000000E+00
  0.13599000E+01  0.80048853E+04  0.80048853E+04  0.80048853E+04  0.00000000E+00  0.00000000E+00  0.00000000E+00
  0.13736000E+01  0.92884450E+04  0.92884450E+04  0.92884450E+04  0.00000000E+00  0.00000000E+00  0.00000000E+00
  0.13874000E+01  0.10798997E+05  0.10798997E+05  0.10798997E+05  0.00000000E+00  0.00000000E+00  0.00000000E+00
  0.14011000E+01  0.12558151E+05  0.12558151E+05  0.12558151E+05  0.00000000E+00  0.00000000E+00  0.00000000E+00
  0.14149000E+01  0.14589709E+05  0.14589709E+05  0.14589709E+05  0.00000000E+00  0.00000000E+00  0.00000000E+00
  0.14286000E+01  0.16885025E+05  0.16885025E+05  0.16885025E+05  0.00000000E+00  0.00000000E+00  0.00000000E+00
  0.14424000E+01  0.19420990E+05  0.19420990E+05  0.19420990E+05  0.00000000E+00  0.00000000E+00  0.00000000E+00
  0.14561000E+01  0.22116390E+05  0.22116390E+05  0.22116390E+05  0.00000000E+00  0.00000000E+00  0.00000000E+00
  0.14699000E+01  0.24862299E+05  0.24862299E+05  0.24862299E+05  0.00000000E+00  0.00000000E+00  0.00000000E+00
  0.14836000E+01  0.27487154E+05  0.27487154E+05  0.27487154E+05  0.00000000E+00  0.00000000E+00  0.00000000E+00
  0.14974000E+01  0.29812015E+05  0.29812015E+05  0.29812015E+05  0.00000000E+00  0.00000000E+00  0.00000000E+00
  0.15111000E+01  0.31634307E+05  0.31634307E+05  0.31634307E+05  0.00000000E+00  0.00000000E+00  0.00000000E+00
  0.15248000E+01  0.32804335E+05  0.32804335E+05  0.32804335E+05  0.00000000E+00  0.00000000E+00  0.00000000E+00
  0.15386000E+01  0.33236143E+05  0.33236143E+05  0.33236143E+05  0.00000000E+00  0.00000000E+00  0.00000000E+00
  0.15523000E+01  0.32912980E+05  0.32912980E+05  0.32912980E+05  0.00000000E+00  0.00000000E+00  0.00000000E+00
  0.15661000E+01  0.31921902E+05  0.31921902E+05  0.31921902E+05  0.00000000E+00  0.00000000E+00  0.00000000E+00
  0.15798000E+01  0.30394553E+05  0.30394553E+05  0.30394553E+05  0.00000000E+00  0.00000000E+00  0.00000000E+00
  0.15936000E+01  0.28516539E+05  0.28516539E+05  0.28516539E+05  0.00000000E+00  0.00000000E+00  0.00000000E+00
  0.16073000E+01  0.26453472E+05  0.26453472E+05  0.26453472E+05  0.00000000E+00  0.00000000E+00  0.00000000E+00
  0.16211000E+01  0.24367684E+05  0.24367684E+05  0.24367684E+05  0.00000000E+00  0.00000000E+00  0.00000000E+00
  0.16348000E+01  0.22365835E+05  0.22365835E+05  0.22365835E+05  0.00000000E+00  0.00000000E+00  0.00000000E+00
  0.16486000E+01  0.20528863E+05  0.20528863E+05  0.20528863E+05  0.00000000E+00  0.00000000E+00  0.00000000E+00
  0.16623000E+01  0.18888953E+05  0.18888953E+05  0.18888953E+05  0.00000000E+00  0.00000000E+00  0.00000000E+00
  0.16761000E+01  0.17463135E+05  0.17463135E+05  0.17463135E+05  0.00000000E+00  0.00000000E+00  0.00000000E+00
  0.16898000E+01  0.16242274E+05  0.16242274E+05  0.16242274E+05  0.00000000E+00  0.00000000E+00  0.00000000E+00
  0.17035000E+01  0.15213532E+05  0.15213532E+05  0.15213532E+05  0.00000000E+00  0.00000000E+00  0.00000000E+00
  0.17173000E+01  0.14360516E+05  0.14360516E+05  0.14360516E+05  0.00000000E+00  0.00000000E+00  0.00000000E+00
  0.17310000E+01  0.13659705E+05  0.13659705E+05  0.13659705E+05  0.00000000E+00  0.00000000E+00  0.00000000E+00
  0.17448000E+01  0.13098020E+05  0.13098020E+05  0.13098020E+05  0.00000000E+00  0.00000000E+00  0.00000000E+00
  0.17585000E+01  0.12653473E+05  0.12653473E+05  0.12653473E+05  0.00000000E+00  0.00000000E+00  0.00000000E+00
  0.17723000E+01  0.12317212E+05  0.12317212E+05  0.12317212E+05  0.00000000E+00  0.00000000E+00  0.00000000E+00
  0.17860000E+01  0.12075594E+05  0.12075594E+05  0.12075594E+05  0.00000000E+00  0.00000000E+00  0.00000000E+00
  0.17998000E+01  0.11921513E+05  0.11921513E+05  0.11921513E+05  0.00000000E+00  0.00000000E+00  0.00000000E+00
  0.18135000E+01  0.11846738E+05  0.11846738E+05  0.11846738E+05  0.00000000E+00  0.00000000E+00  0.00000000E+00
  0.18273000E+01  0.11846831E+05  0.11846831E+05  0.11846831E+05  0.00000000E+00  0.00000000E+00  0.00000000E+00
  0.18410000E+01  0.11919817E+05  0.11919817E+05  0.11919817E+05  0.00000000E+00  0.00000000E+00  0.00000000E+00
  0.18548000E+01  0.12063249E+05  0.12063249E+05  0.12063249E+05  0.00000000E+00  0.00000000E+00  0.00000000E+00
  0.18685000E+01  0.12276151E+05  0.12276151E+05  0.12276151E+05  0.00000000E+00  0.00000000E+00  0.00000000E+00
  0.18823000E+01  0.12561495E+05  0.12561495E+05  0.12561495E+05  0.00000000E+00  0.00000000E+00  0.00000000E+00
  0.18960000E+01  0.12922721E+05  0.12922721E+05  0.12922721E+05  0.00000000E+00  0.00000000E+00  0.00000000E+00
  0.19097000E+01  0.13363165E+05  0.13363165E+05  0.13363165E+05  0.00000000E+00  0.00000000E+00  0.00000000E+00
  0.19235000E+01  0.13893962E+05  0.13893962E+05  0.13893962E+05  0.00000000E+00  0.00000000E+00  0.00000000E+00
  0.19372000E+01  0.14518812E+05  0.14518812E+05  0.14518812E+05  0.00000000E+00  0.00000000E+00  0.00000000E+00
  0.19510000E+01  0.15255211E+05  0.15255211E+05  0.15255211E+05  0.00000000E+00  0.00000000E+00  0.00000000E+00
  0.19647000E+01  0.16115283E+05  0.16115283E+05  0.16115283E+05  0.00000000E+00  0.00000000E+00  0.00000000E+00
  0.19785000E+01  0.17119186E+05  0.17119186E+05  0.17119186E+05  0.00000000E+00  0.00000000E+00  0.00000000E+00
  0.19922000E+01  0.18288116E+05  0.18288116E+05  0.18288116E+05  0.00000000E+00  0.00000000E+00  0.00000000E+00
  0.20060000E+01  0.19653716E+05  0.19653716E+05  0.19653716E+05  0.00000000E+00  0.00000000E+00  0.00000000E+00
  0.20197000E+01  0.21247220E+05  0.21247220E+05  0.21247220E+05  0.00000000E+00  0.00000000E+00  0.00000000E+00
  0.20335000E+01  0.23111363E+05  0.23111363E+05  0.23111363E+05  0.00000000E+00  0.00000000E+00  0.00000000E+00
  0.20472000E+01  0.25290322E+05  0.25290322E+05  0.25290322E+05  0.00000000E+00  0.00000000E+00  0.00000000E+00
  0.20610000E+01  0.27832880E+05  0.27832880E+05  0.27832880E+05  0.00000000E+00  0.00000000E+00  0.00000000E+00
  0.20747000E+01  0.30787794E+05  0.30787794E+05  0.30787794E+05  0.00000000E+00  0.00000000E+00  0.00000000E+00
  0.20884000E+01  0.34191764E+05  0.34191764E+05  0.34191764E+05  0.00000000E+00  0.00000000E+00  0.00000000E+00
  0.21022000E+01  0.38062260E+05  0.38062260E+05  0.38062260E+05  0.00000000E+00  0.00000000E+00  0.00000000E+00
  0.21159000E+01  0.42375654E+05  0.42375654E+05  0.42375654E+05  0.00000000E+00  0.00000000E+00  0.00000000E+00
  0.21297000E+01  0.47054222E+05  0.47054222E+05  0.47054222E+05  0.00000000E+00  0.00000000E+00  0.00000000E+00
  0.21434000E+01  0.51941329E+05  0.51941329E+05  0.51941329E+05  0.00000000E+00  0.00000000E+00  0.00000000E+00
  0.21572000E+01  0.56808939E+05  0.56808939E+05  0.56808939E+05  0.00000000E+00  0.00000000E+00  0.00000000E+00
  0.21709000E+01  0.61348423E+05  0.61348423E+05  0.61348423E+05  0.00000000E+00  0.00000000E+00  0.00000000E+00
  0.21847000E+01  0.65233986E+05  0.65233986E+05  0.65233986E+05  0.00000000E+00  0.00000000E+00  0.00000000E+00
  0.21984000E+01  0.68138008E+05  0.68138008E+05  0.68138008E+05  0.00000000E+00  0.00000000E+00  0.00000000E+00
  0.22122000E+01  0.69833805E+05  0.69833805E+05  0.69833805E+05  0.00000000E+00  0.00000000E+00  0.00000000E+00
  0.22259000E+01  0.70200713E+05  0.70200713E+05  0.70200713E+05  0.00000000E+00  0.00000000E+00  0.00000000E+00
  0.22397000E+01  0.69290309E+05  0.69290309E+05  0.69290309E+05  0.00000000E+00  0.00000000E+00  0.00000000E+00
  0.22534000E+01  0.67278443E+05  0.67278443E+05  0.67278443E+05  0.00000000E+00  0.00000000E+00  0.00000000E+00
  0.22672000E+01  0.64467343E+05  0.64467343E+05  0.64467343E+05  0.00000000E+00  0.00000000E+00  0.00000000E+00
  0.22809000E+01  0.61181677E+05  0.61181677E+05  0.61181677E+05  0.00000000E+00  0.00000000E+00  0.00000000E+00
  0.22946000E+01  0.57745466E+05  0.57745466E+05  0.57745466E+05  0.00000000E+00  0.00000000E+00  0.00000000E+00
  0.23084000E+01  0.54430589E+05  0.54430589E+05  0.54430589E+05  0.00000000E+00  0.00000000E+00  0.00000000E+00
  0.23221000E+01  0.51423483E+05  0.51423483E+05  0.51423483E+05  0.00000000E+00  0.00000000E+00  0.00000000E+00
  0.23359000E+01  0.48850784E+05  0.48850784E+05  0.48850784E+05  0.00000000E+00  0.00000000E+00  0.00000000E+00
  0.23496000E+01  0.46774112E+05  0.46774112E+05  0.46774112E+05  0.00000000E+00  0.00000000E+00  0.00000000E+00
  0.23634000E+01  0.45212119E+05  0.45212119E+05  0.45212119E+05  0.00000000E+00  0.00000000E+00  0.00000000E+00
  0.23771000E+01  0.44167080E+05  0.44167080E+05  0.44167080E+05  0.00000000E+00  0.00000000E+00  0.00000000E+00
  0.23909000E+01  0.43622016E+05  0.43622016E+05  0.43622016E+05  0.00000000E+00  0.00000000E+00  0.00000000E+00
  0.24046000E+01  0.43565302E+05  0.43565302E+05  0.43565302E+05  0.00000000E+00  0.00000000E+00  0.00000000E+00
  0.24184000E+01  0.43990431E+05  0.43990431E+05  0.43990431E+05  0.00000000E+00  0.00000000E+00  0.00000000E+00
  0.24321000E+01  0.44894237E+05  0.44894237E+05  0.44894237E+05  0.00000000E+00  0.00000000E+00  0.00000000E+00
  0.24459000E+01  0.46283935E+05  0.46283935E+05  0.46283935E+05  0.00000000E+00  0.00000000E+00  0.00000000E+00
  0.24596000E+01  0.48168068E+05  0.48168068E+05  0.48168068E+05  0.00000000E+00  0.00000000E+00  0.00000000E+00
  0.24733000E+01  0.50555046E+05  0.50555046E+05  0.50555046E+05  0.00000000E+00  0.00000000E+00  0.00000000E+00
  0.24871000E+01  0.53447192E+05  0.53447192E+05  0.53447192E+05  0.00000000E+00  0.00000000E+00  0.00000000E+00
  0.25008000E+01  0.56828182E+05  0.56828182E+05  0.56828182E+05  0.00000000E+00  0.00000000E+00  0.00000000E+00
  0.25146000E+01  0.60657931E+05  0.60657931E+05  0.60657931E+05  0.00000000E+00  0.00000000E+00  0.00000000E+00
  0.25283000E+01  0.64876898E+05  0.64876898E+05  0.64876898E+05  0.00000000E+00  0.00000000E+00  0.00000000E+00
  0.25421000E+01  0.69384824E+05  0.69384824E+05  0.69384824E+05  0.00000000E+00  0.00000000E+00  0.00000000E+00
  0.25558000E+01  0.74066474E+05  0.74066474E+05  0.74066474E+05  0.00000000E+00  0.00000000E+00  0.00000000E+00
  0.25696000E+01  0.78776500E+05  0.78776500E+05  0.78776500E+05  0.00000000E+00  0.00000000E+00  0.00000000E+00
  0.25833000E+01  0.83369906E+05  0.83369906E+05  0.83369906E+05  0.00000000E+00  0.00000000E+00  0.00000000E+00
  0.25971000E+01  0.87691533E+05  0.87691533E+05  0.87691533E+05  0.00000000E+00  0.00000000E+00  0.00000000E+00
  0.26108000E+01  0.91601205E+05  0.91601205E+05  0.91601205E+05  0.00000000E+00  0.00000000E+00  0.00000000E+00
  0.26246000E+01  0.94977430E+05  0.94977430E+05  0.94977430E+05  0.00000000E+00  0.00000000E+00  0.00000000E+00
  0.26383000E+01  0.97744853E+05  0.97744853E+05  0.97744853E+05  0.00000000E+00  0.00000000E+00  0.00000000E+00
  0.26521000E+01  0.99895286E+05  0.99895286E+05  0.99895286E+05  0.00000000E+00  0.00000000E+00  0.00000000E+00
  0.26658000E+01  0.10150192E+06  0.10150192E+06  0.10150192E+06  0.00000000E+00  0.00000000E+00  0.00000000E+00
  0.26795000E+01  0.10271828E+06  0.10271828E+06  0.10271828E+06  0.00000000E+00  0.00000000E+00  0.00000000E+00
  0.26933000E+01  0.10374454E+06  0.10374454E+06  0.10374454E+06  0.00000000E+00  0.00000000E+00  0.00000000E+00
  0.27070000E+01  0.10482369E+06  0.10482369E+06  0.10482369E+06  0.00000000E+00  0.00000000E+00  0.00000000E+00
  0.27208000E+01  0.10615598E+06  0.10615598E+06  0.10615598E+06  0.00000000E+00  0.00000000E+00  0.00000000E+00
  0.27345000E+01  0.10787647E+06  0.10787647E+06  0.10787647E+06  0.00000000E+00  0.00000000E+00  0.00000000E+00
  0.27483000E+01  0.11001133E+06  0.11001133E+06  0.11001133E+06  0.00000000E+00  0.00000000E+00  0.00000000E+00
  0.27620000E+01  0.11249392E+06  0.11249392E+06  0.11249392E+06  0.00000000E+00  0.00000000E+00  0.00000000E+00
  0.27758000E+01  0.11517063E+06  0.11517063E+06  0.11517063E+06  0.00000000E+00  0.00000000E+00  0.00000000E+00
  0.27895000E+01  0.11788270E+06  0.11788270E+06  0.11788270E+06  0.00000000E+00  0.00000000E+00  0.00000000E+00
  0.28033000E+01  0.12047806E+06  0.12047806E+06  0.12047806E+06  0.00000000E+00  0.00000000E+00  0.00000000E+00
  0.28170000E+01  0.12291736E+06  0.12291736E+06  0.12291736E+06  0.00000000E+00  0.00000000E+00  0.00000000E+00
  0.28308000E+01  0.12524349E+06  0.12524349E+06  0.12524349E+06  0.00000000E+00  0.00000000E+00  0.00000000E+00
  0.28445000E+01  0.12766839E+06  0.12766839E+06  0.12766839E+06  0.00000000E+00  0.00000000E+00  0.00000000E+00
  0.28582000E+01  0.13045453E+06  0.13045453E+06  0.13045453E+06  0.00000000E+00  0.00000000E+00  0.00000000E+00
  0.28720000E+01  0.13392529E+06  0.13392529E+06  0.13392529E+06  0.00000000E+00  0.00000000E+00  0.00000000E+00
  0.28857000E+01  0.13846232E+06  0.13846232E+06  0.13846232E+06  0.00000000E+00  0.00000000E+00  0.00000000E+00
  0.28995000E+01  0.14437395E+06  0.14437395E+06  0.14437395E+06  0.00000000E+00  0.00000000E+00  0.00000000E+00
  0.29132000E+01  0.15197322E+06  0.15197322E+06  0.15197322E+06  0.00000000E+00  0.00000000E+00  0.00000000E+00
  0.29270000E+01  0.16146614E+06  0.16146614E+06  0.16146614E+06  0.00000000E+00  0.00000000E+00  0.00000000E+00
  0.29407000E+01  0.17305701E+06  0.17305701E+06  0.17305701E+06  0.00000000E+00  0.00000000E+00  0.00000000E+00
  0.29545000E+01  0.18681060E+06  0.18681060E+06  0.18681060E+06  0.00000000E+00  0.00000000E+00  0.00000000E+00
  0.29682000E+01  0.20279178E+06  0.20279178E+06  0.20279178E+06  0.00000000E+00  0.00000000E+00  0.00000000E+00
  0.29820000E+01  0.22086883E+06  0.22086883E+06  0.22086883E+06  0.00000000E+00  0.00000000E+00  0.00000000E+00
  0.29957000E+01  0.24088816E+06  0.24088816E+06  0.24088816E+06  0.00000000E+00  0.00000000E+00  0.00000000E+00
  0.30095000E+01  0.26241786E+06  0.26241786E+06  0.26241786E+06  0.00000000E+00  0.00000000E+00  0.00000000E+00
  0.30232000E+01  0.28496757E+06  0.28496757E+06  0.28496757E+06  0.00000000E+00  0.00000000E+00  0.00000000E+00
  0.30370000E+01  0.30772022E+06  0.30772022E+06  0.30772022E+06  0.00000000E+00  0.00000000E+00  0.00000000E+00
  0.30507000E+01  0.32988521E+06  0.32988521E+06  0.32988521E+06  0.00000000E+00  0.00000000E+00  0.00000000E+00
  0.30644000E+01  0.35039348E+06  0.35039348E+06  0.35039348E+06  0.00000000E+00  0.00000000E+00  0.00000000E+00
  0.30782000E+01  0.36816812E+06  0.36816812E+06  0.36816812E+06  0.00000000E+00  0.00000000E+00  0.00000000E+00
  0.30919000E+01  0.38252034E+06  0.38252034E+06  0.38252034E+06  0.00000000E+00  0.00000000E+00  0.00000000E+00
  0.31057000E+01  0.39280003E+06  0.39280003E+06  0.39280003E+06  0.00000000E+00  0.00000000E+00  0.00000000E+00
  0.31194000E+01  0.39900843E+06  0.39900843E+06  0.39900843E+06  0.00000000E+00  0.00000000E+00  0.00000000E+00
  0.31332000E+01  0.40129471E+06  0.40129471E+06  0.40129471E+06  0.00000000E+00  0.00000000E+00  0.00000000E+00
  0.31469000E+01  0.40051885E+06  0.40051885E+06  0.40051885E+06  0.00000000E+00  0.00000000E+00  0.00000000E+00
  0.31607000E+01  0.39743986E+06  0.39743986E+06  0.39743986E+06  0.00000000E+00  0.00000000E+00  0.00000000E+00
  0.31744000E+01  0.39328269E+06  0.39328269E+06  0.39328269E+06  0.00000000E+00  0.00000000E+00  0.00000000E+00
  0.31882000E+01  0.38876703E+06  0.38876703E+06  0.38876703E+06  0.00000000E+00  0.00000000E+00  0.00000000E+00
  0.32019000E+01  0.38479225E+06  0.38479225E+06  0.38479225E+06  0.00000000E+00  0.00000000E+00  0.00000000E+00
  0.32157000E+01  0.38151968E+06  0.38151968E+06  0.38151968E+06  0.00000000E+00  0.00000000E+00  0.00000000E+00
  0.32294000E+01  0.37928922E+06  0.37928922E+06  0.37928922E+06  0.00000000E+00  0.00000000E+00  0.00000000E+00
  0.32432000E+01  0.37776886E+06  0.37776886E+06  0.37776886E+06  0.00000000E+00  0.00000000E+00  0.00000000E+00
  0.32569000E+01  0.37704325E+06  0.37704325E+06  0.37704325E+06  0.00000000E+00  0.00000000E+00  0.00000000E+00
  0.32706000E+01  0.37675228E+06  0.37675228E+06  0.37675228E+06  0.00000000E+00  0.00000000E+00  0.00000000E+00
  0.32844000E+01  0.37658945E+06  0.37658945E+06  0.37658945E+06  0.00000000E+00  0.00000000E+00  0.00000000E+00
  0.32981000E+01  0.37678498E+06  0.37678498E+06  0.37678498E+06  0.00000000E+00  0.00000000E+00  0.00000000E+00
  0.33119000E+01  0.37707423E+06  0.37707423E+06  0.37707423E+06  0.00000000E+00  0.00000000E+00  0.00000000E+00
  0.33256000E+01  0.37775887E+06  0.37775887E+06  0.37775887E+06  0.00000000E+00  0.00000000E+00  0.00000000E+00
