  #energy          xx             yy              zz              xy              yz              zx
  0.92000000E+00  0.00000000E+00  0.00000000E+00  0.00000000E+00  0.00000000E+00  0.00000000E+00  0.00000000E+00
  0.93370000E+00  0.30432184E-04  0.30432184E-04  0.30432184E-04  0.00000000E+00  0.00000000E+00  0.00000000E+00
  0.94750000E+00  0.12027228E-03  0.12027228E-03  0.12027228E-03  0.00000000E+00  0.00000000E+00  0.00000000E+00
  0.96120000E+00  0.26686792E-03  0.26686792E-03  0.26686792E-03  0.00000000E+00  0.00000000E+00  0.00000000E+00
  0.97500000E+00  0.47027413E-03  0.47027413E-03  0.47027413E-03  0.00000000E+00  0.00000000E+00  0.00000000E+00
  0.98870000E+00  0.72790128E-03  0.72790128E-03  0.72790128E-03  0.00000000E+00  0.00000000E+00  0.00000000E+00
  0.10025000E+01  0.10417626E-02  0.10417626E-02  0.10417626E-02  0.00000000E+00  0.00000000E+00  0.00000000E+00
  0.10162000E+01  0.14092612E-02  0.14092612E-02  0.14092612E-02  0.00000000E+00  0.00000000E+00  0.00000000E+00
  0.10300000E+01  0.18359115E-02  0.18359115E-02  0.18359115E-02  0.00000000E+00  0.00000000E+00  0.00000000E+00
  0.10437000E+01  0.23176654E-02  0.23176654E-02  0.23176654E-02  0.00000000E+00  0.00000000E+00  0.00000000E+00
  0.10575000E+01  0.28619653E-02  0.28619653E-02  0.28619653E-02  0.00000000E+00  0.00000000E+00  0.00000000E+00
  0.10712000E+01  0.34688337E-02  0.34688337E-02  0.34688337E-02  0.00000000E+00  0.00000000E+00  0.00000000E+00
  0.10850000E+01  0.41435500E-02  0.41435500E-02  0.41435500E-02  0.00000000E+00  0.00000000E+00  0.00000000E+00
  0.10987000E+01  0.48888501E-02  0.48888501E-02  0.48888501E-02  0.00000000E+00  0.00000000E+00  0.00000000E+00
  0.11125000E+01  0.57142168E-02  0.57142168E-02  0.57142168E-02  0.00000000E+00  0.00000000E+00  0.00000000E+00
  0.11262000E+01  0.66236255E-02  0.66236255E-02  0.66236255E-02  0.00000000E+00  0.00000000E+00  0.00000000E+00
  0.11399000E+01  0.76258527E-02  0.76258527E-02  0.76258527E-02  0.00000000E+00  0.00000000E+00  0.00000000E+00
  0.11537000E+01  0.87372883E-02  0.87372883E-02  0.87372883E-02  0.00000000E+00  0.00000000E+00  0.00000000E+00
  0.11674000E+01  0.99639194E-02  0.99639194E-02  0.99639194E-02  0.00000000E+00  0.00000000E+00  0.00000000E+00
  0.11812000E+01  0.11324140E-01  0.11324140E-01  0.11324140E-01  0.00000000E+00  0.00000000E+00  0.00000000E+00
  0.11949000E+01  0.12832302E-01  0.12832302E-01  0.12832302E-01  0.00000000E+00  0.00000000E+00  0.00000000E+00
  0.12087000E+01  0.14517574E-01  0.14517574E-01  0.14517574E-01  0.00000000E+00  0.00000000E+00  0.00000000E+00
  0.12224000E+01  0.16396988E-01  0.16396988E-01  0.16396988E-01  0.00000000E+00  0.00000000E+00  0.00000000E+00
  0.12362000E+01  0.18512023E-01  0.18512023E-01  0.18512023E-01  0.00000000E+00  0.00000000E+00  0.00000000E+00
  0.12499000E+01  0.20891030E-01  0.20891030E-01  0.20891030E-01  0.00000000E+00  0.00000000E+00  0.00000000E+00
  0.12637000E+01  0.23589927E-01  0.23589927E-01  0.23589927E-01  0.00000000E+00  0.00000000E+00  0.00000000E+00
  0.12774000E+01  0.26663532E-01  0.26663532E-01  0.26663532E-01  0.00000000E+00  0.00000000E+00  0.00000000E+00
  0.12912000E+01  0.30180590E-01  0.30180590E-01  0.30180590E-01  0.00000000E+00  0.00000000E+00  0.00000000E+00
  0.13049000E+01  0.34225828E-01  0.34225828E-01  0.34225828E-01  0.00000000E+00  0.00000000E+00  0.00000000E+00
  0.13186000E+01  0.38900607E-01  0.38900607E-01  0.38900607E-01  0.00000000E+00  0.00000000E+00  0.00000000E+00
  0.13324000E+01  0.44338193E-01  0.44338193E-01  0.44338193E-01  0.00000000E+00  0.00000000E+00  0.00000000E+00
  0.13461000E+01  0.50669570E-01  0.50669570E-01  0.50669570E-01  0.00000000E+00  0.00000000E+00  0.00000000E+00
  0.13599000E+01  0.58077051E-01  0.58077051E-01  0.58077051E-01  0.00000000E+00  0.00000000E+00  0.00000000E+00
  0.13736000E+01  0.66717406E-01  0.66717406E-01  0.66717406E-01  0.00000000E+00  0.00000000E+00  0.00000000E+00
  0.13874000E+01  0.76795920E-01  0.76795920E-01  0.76795920E-01  0.00000000E+00  0.00000000E+00  0.00000000E+00
  0.14011000E+01  0.88432723E-01  0.88432723E-01  0.88432723E-01  0.00000000E+00  0.00000000E+00  0.00000000E+00
  0.14149000E+01  0.10173662E+00  0.10173662E+00  0.10173662E+00  0.00000000E+00  0.00000000E+00  0.00000000E+00
  0.14286000E+01  0.11661314E+00  0.11661314E+00  0.11661314E+00  0.00000000E+00  0.00000000E+00  0.00000000E+00
  0.14424000E+01  0.13284404E+00  0.13284404E+00  0.13284404E+00  0.00000000E+00  0.00000000E+00  0.00000000E+00
  0.14561000E+01  0.14985783E+00  0.14985783E+00  0.14985783E+00  0.00000000E+00  0.00000000E+00  0.00000000E+00
  0.14699000E+01  0.16688216E+00  0.16688216E+00  0.16688216E+00  0.00000000E+00  0.00000000E+00  0.00000000E+00
  0.14836000E+01  0.18279713E+00  0.18279713E+00  0.18279713E+00  0.00000000E+00  0.00000000E+00  0.00000000E+00
  0.14974000E+01  0.19643095E+00  0.19643095E+00  0.19643095E+00  0.00000000E+00  0.00000000E+00  0.00000000E+00
  0.15111000E+01  0.20654826E+00  0.20654826E+00  0.20654826E+00  0.00000000E+00  0.00000000E+00  0.00000000E+00
  0.15248000E+01  0.21226323E+00  0.21226323E+00  0.21226323E+00  0.00000000E+00  0.00000000E+00  0.00000000E+00
  0.15386000E+01  0.21312839E+00  0.21312839E+00  0.21312839E+00  0.00000000E+00  0.00000000E+00  0.00000000E+00
  0.15523000E+01  0.20919339E+00  0.20919339E+00  0.20919339E+00  0.00000000E+00  0.00000000E+00  0.00000000E+00
  0.15661000E+01  0.20110630E+00  0.20110630E+00  0.20110630E+00  0.00000000E+00  0.00000000E+00  0.00000000E+00
  0.15798000E+01  0.18982354E+00  0.18982354E+00  0.18982354E+00  0.00000000E+00  0.00000000E+00  0.00000000E+00
  0.15936000E+01  0.17655252E+00  0.17655252E+00  0.17655252E+00  0.00000000E+00  0.00000000E+00  0.00000000E+00
  0.16073000E+01  0.16238359E+00  0.16238359E+00  0.16238359E+00  0.00000000E+00  0.00000000E+00  0.00000000E+00
  0.16211000E+01  0.14830673E+00  0.14830673E+00  0.14830673E+00  0.00000000E+00  0.00000000E+00  0.00000000E+00
  0.16348000E+01  0.13498232E+00  0.13498232E+00  0.13498232E+00  0.00000000E+00  0.00000000E+00  0.00000000E+00
  0.16486000E+01  0.12285873E+00  0.12285873E+00  0.12285873E+00  0.00000000E+00  0.00000000E+00  0.00000000E+00
  0.16623000E+01  0.11211272E+00  0.11211272E+00  0.11211272E+00  0.00000000E+00  0.00000000E+00  0.00000000E+00
  0.16761000E+01  0.10279659E+00  0.10279659E+00  0.10279659E+00  0.00000000E+00  0.00000000E+00  0.00000000E+00
  0.16898000E+01  0.94834846E-01  0.94834846E-01  0.94834846E-01  0.00000000E+00  0.00000000E+00  0.00000000E+00
  0.17035000E+01  0.88113883E-01  0.88113883E-01  0.88113883E-01  0.00000000E+00  0.00000000E+00  0.00000000E+00
  0.17173000E+01  0.82505006E-01  0.82505006E-01  0.82505006E-01  0.00000000E+00  0.00000000E+00  0.00000000E+00
  0.17310000E+01  0.77857539E-01  0.77857539E-01  0.77857539E-01  0.00000000E+00  0.00000000E+00  0.00000000E+00
  0.17448000E+01  0.74065579E-01  0.74065579E-01  0.74065579E-01  0.00000000E+00  0.00000000E+00  0.00000000E+00
  0.17585000E+01  0.70994348E-01  0.70994348E-01  0.70994348E-01  0.00000000E+00  0.00000000E+00  0.00000000E+00
  0.17723000E+01  0.68569599E-01  0.68569599E-01  0.68569599E-01  0.00000000E+00  0.00000000E+00  0.00000000E+00
  0.17860000E+01  0.66708853E-01  0.66708853E-01  0.66708853E-01  0.00000000E+00  0.00000000E+00  0.00000000E+00
  0.17998000E+01  0.65352704E-01  0.65352704E-01  0.65352704E-01  0.00000000E+00  0.00000000E+00  0.00000000E+00
  0.18135000E+01  0.64452183E-01  0.64452183E-01  0.64452183E-01  0.00000000E+00  0.00000000E+00  0.00000000E+00
  0.18273000E+01  0.63965933E-01  0.63965933E-01  0.63965933E-01  0.00000000E+00  0.00000000E+00  0.00000000E+00
  0.18410000E+01  0.63881075E-01  0.63881075E-01  0.63881075E-01  0.00000000E+00  0.00000000E+00  0.00000000E+00
  0.18548000E+01  0.64168756E-01  0.64168756E-01  0.64168756E-01  0.00000000E+00  0.00000000E+00  0.00000000E+00
  0.18685000E+01  0.64822466E-01  0.64822466E-01  0.64822466E-01  0.00000000E+00  0.00000000E+00  0.00000000E+00
  0.18823000E+01  0.65842893E-01  0.65842893E-01  0.65842893E-01  0.00000000E+00  0.00000000E+00  0.00000000E+00
  0.18960000E+01  0.67246866E-01  0.67246866E-01  0.67246866E-01  0.00000000E+00  0.00000000E+00  0.00000000E+00
  0.19097000E+01  0.69039971E-01  0.69039971E-01  0.69039971E-01  0.00000000E+00  0.00000000E+00  0.00000000E+00
  0.19235000E+01  0.71267305E-01  0.71267305E-01  0.71267305E-01  0.00000000E+00  0.00000000E+00  0.00000000E+00
  0.19372000E+01  0.73945722E-01  0.73945722E-01  0.73945722E-01  0.00000000E+00  0.00000000E+00  0.00000000E+00
  0.19510000E+01  0.77146703E-01  0.77146703E-01  0.77146703E-01  0.00000000E+00  0.00000000E+00  0.00000000E+00
  0.19647000E+01  0.80927872E-01  0.80927872E-01  0.80927872E-01  0.00000000E+00  0.00000000E+00  0.00000000E+00
  0.19785000E+01  0.85369644E-01  0.85369644E-01  0.85369644E-01  0.00000000E+00  0.00000000E+00  0.00000000E+00
  0.19922000E+01  0.90571687E-01  0.90571687E-01  0.90571687E-01  0.00000000E+00  0.00000000E+00  0.00000000E+00
  0.20060000E+01  0.96665205E-01  0.96665205E-01  0.96665205E-01  0.00000000E+00  0.00000000E+00  0.00000000E+00
  0.20197000E+01  0.10379386E+00  0.10379386E+00  0.10379386E+00  0.00000000E+00  0.00000000E+00  0.00000000E+00
  0.20335000E+01  0.11213412E+00  0.11213412E+00  0.11213412E+00  0.00000000E+00  0.00000000E+00  0.00000000E+00
  0.20472000E+01  0.12188507E+00  0.12188507E+00  0.12188507E+00  0.00000000E+00  0.00000000E+00  0.00000000E+00
  0.20610000E+01  0.13324060E+00  0.13324060E+00  0.13324060E+00  0.00000000E+00  0.00000000E+00  0.00000000E+00
  0.20747000E+01  0.14641302E+00  0.14641302E+00  0.14641302E+00  0.00000000E+00  0.00000000E+00  0.00000000E+00
  0.20884000E+01  0.16153411E+00  0.16153411E+00  0.16153411E+00  0.00000000E+00  0.00000000E+00  0.00000000E+00
  0.21022000E+01  0.17863928E+00  0.17863928E+00  0.17863928E+00  0.00000000E+00  0.00000000E+00  0.00000000E+00
  0.21159000E+01  0.19759579E+00  0.19759579E+00  0.19759579E+00  0.00000000E+00  0.00000000E+00  0.00000000E+00
  0.21297000E+01  0.21799001E+00  0.21799001E+00  0.21799001E+00  0.00000000E+00  0.00000000E+00  0.00000000E+00
  0.21434000E+01  0.23909266E+00  0.23909266E+00  0.23909266E+00  0.00000000E+00  0.00000000E+00  0.00000000E+00
  0.21572000E+01  0.25982605E+00  0.25982605E+00  0.25982605E+00  0.00000000E+00  0.00000000E+00  0.00000000E+00
  0.21709000E+01  0.27881748E+00  0.27881748E+00  0.27881748E+00  0.00000000E+00  0.00000000E+00  0.00000000E+00
  0.21847000E+01  0.29460392E+00  0.29460392E+00  0.29460392E+00  0.00000000E+00  0.00000000E+00  0.00000000E+00
  0.21984000E+01  0.30580116E+00  0.30580116E+00  0.30580116E+00  0.00000000E+00  0.00000000E+00  0.00000000E+00
  0.22122000E+01  0.31145674E+00  0.31145674E+00  0.31145674E+00  0.00000000E+00  0.00000000E+00  0.00000000E+00
  0.22259000E+01  0.31116611E+00  0.31116611E+00  0.31116611E+00  0.00000000E+00  0.00000000E+00  0.00000000E+00
  0.22397000E+01  0.30523833E+00  0.30523833E+00  0.30523833E+00  0.00000000E+00  0.00000000E+00  0.00000000E+00
  0.22534000E+01  0.29457376E+00  0.29457376E+00  0.29457376E+00  0.00000000E+00  0.00000000E+00  0.00000000E+00
  0.22672000E+01  0.28054747E+00  0.28054747E+00  0.28054747E+00  0.00000000E+00  0.00000000E+00  0.00000000E+00
  0.22809000E+01  0.26464979E+00  0.26464979E+00  0.26464979E+00  0.00000000E+00  0.00000000E+00  0.00000000E+00
  0.22946000E+01  0.24829463E+00  0.24829463E+00  0.24829463E+00  0.00000000E+00  0.00000000E+00  0.00000000E+00
  0.23084000E+01  0.23264214E+00  0.23264214E+00  0.23264214E+00  0.00000000E+00  0.00000000E+00  0.00000000E+00
  0.23221000E+01  0.21849273E+00  0.21849273E+00  0.21849273E+00  0.00000000E+00  0.00000000E+00  0.00000000E+00
  0.23359000E+01  0.20633538E+00  0.20633538E+00  0.20633538E+00  0.00000000E+00  0.00000000E+00  0.00000000E+00
  0.23496000E+01  0.19641201E+00  0.19641201E+00  0.19641201E+00  0.00000000E+00  0.00000000E+00  0.00000000E+00
  0.23634000E+01  0.18874439E+00  0.18874439E+00  0.18874439E+00  0.00000000E+00  0.00000000E+00  0.00000000E+00
  0.23771000E+01  0.18331907E+00  0.18331907E+00  0.18331907E+00  0.00000000E+00  0.00000000E+00  0.00000000E+00
  0.23909000E+01  0.18001170E+00  0.18001170E+00  0.18001170E+00  0.00000000E+00  0.00000000E+00  0.00000000E+00
  0.24046000E+01  0.17875340E+00  0.17875340E+00  0.17875340E+00  0.00000000E+00  0.00000000E+00  0.00000000E+00
  0.24184000E+01  0.17946779E+00  0.17946779E+00  0.17946779E+00  0.00000000E+00  0.00000000E+00  0.00000000E+00
  0.24321000E+01  0.18212333E+00  0.18212333E+00  0.18212333E+00  0.00000000E+00  0.00000000E+00  0.00000000E+00
  0.24459000E+01  0.18670158E+00  0.18670158E+00  0.18670158E+00  0.00000000E+00  0.00000000E+00  0.00000000E+00
  0.24596000E+01  0.19321959E+00  0.19321959E+00  0.19321959E+00  0.00000000E+00  0.00000000E+00  0.00000000E+00
  0.24733000E+01  0.20167132E+00  0.20167132E+00  0.20167132E+00  0.00000000E+00  0.00000000E+00  0.00000000E+00
  0.24871000E+01  0.21202549E+00  0.21202549E+00  0.21202549E+00  0.00000000E+00  0.00000000E+00  0.00000000E+00
  0.25008000E+01  0.22420290E+00  0.22420290E+00  0.22420290E+00  0.00000000E+00  0.00000000E+00  0.00000000E+00
  0.25146000E+01  0.23799898E+00  0.23799898E+00  0.23799898E+00  0.00000000E+00  0.00000000E+00  0.00000000E+00
  0.25283000E+01  0.25317329E+00  0.25317329E+00  0.25317329E+00  0.00000000E+00  0.00000000E+00  0.00000000E+00
  0.25421000E+01  0.26929499E+00  0.26929499E+00  0.26929499E+00  0.00000000E+00  0.00000000E+00  0.00000000E+00
  0.25558000E+01  0.28592440E+00  0.28592440E+00  0.28592440E+00  0.00000000E+00  0.00000000E+00  0.00000000E+00
  0.25696000E+01  0.30247367E+00  0.30247367E+00  0.30247367E+00  0.00000000E+00  0.00000000E+00  0.00000000E+00
  0.25833000E+01  0.31841307E+00  0.31841307E+00  0.31841307E+00  0.00000000E+00  0.00000000E+00  0.00000000E+00
  0.25971000E+01  0.33313895E+00  0.33313895E+00  0.33313895E+00  0.00000000E+00  0.00000000E+00  0.00000000E+00
  0.26108000E+01  0.34616567E+00  0.34616567E+00  0.34616567E+00  0.00000000E+00  0.00000000E+00  0.00000000E+00
  0.26246000E+01  0.35703740E+00  0.35703740E+00  0.35703740E+00  0.00000000E+00  0.00000000E+00  0.00000000E+00
  0.26383000E+01  0.36553262E+00  0.36553262E+00  0.36553262E+00  0.00000000E+00  0.00000000E+00  0.00000000E+00
  0.26521000E+01  0.37163064E+00  0.37163064E+00  0.37163064E+00  0.00000000E+00  0.00000000E+00  0.00000000E+00
  0.26658000E+01  0.37566707E+00  0.37566707E+00  0.37566707E+00  0.00000000E+00  0.00000000E+00  0.00000000E+00
  0.26795000E+01  0.37822516E+00  0.37822516E+00  0.37822516E+00  0.00000000E+00  0.00000000E+00  0.00000000E+00
  0.26933000E+01  0.38004667E+00  0.38004667E+00  0.38004667E+00  0.00000000E+00  0.00000000E+00  0.00000000E+00
  0.27070000E+01  0.38205651E+00  0.38205651E+00  0.38205651E+00  0.00000000E+00  0.00000000E+00  0.00000000E+00
  0.27208000E+01  0.38494994E+00  0.38494994E+00  0.38494994E+00  0.00000000E+00  0.00000000E+00  0.00000000E+00
  0.27345000E+01  0.38922904E+00  0.38922904E+00  0.38922904E+00  0.00000000E+00  0.00000000E+00  0.00000000E+00
  0.27483000E+01  0.39493870E+00  0.39493870E+00  0.39493870E+00  0.00000000E+00  0.00000000E+00  0.00000000E+00
  0.27620000E+01  0.40184799E+00  0.40184799E+00  0.40184799E+00  0.00000000E+00  0.00000000E+00  0.00000000E+00
  0.27758000E+01  0.40936433E+00  0.40936433E+00  0.40936433E+00  0.00000000E+00  0.00000000E+00  0.00000000E+00
  0.27895000E+01  0.41694630E+00  0.41694630E+00  0.41694630E+00  0.00000000E+00  0.00000000E+00  0.00000000E+00
  0.28033000E+01  0.42402828E+00  0.42402828E+00  0.42402828E+00  0.00000000E+00  0.00000000E+00  0.00000000E+00
  0.28170000E+01  0.43050954E+00  0.43050954E+00  0.43050954E+00  0.00000000E+00  0.00000000E+00  0.00000000E+00
  0.28308000E+01  0.43651824E+00  0.43651824E+00  0.43651824E+00  0.00000000E+00  0.00000000E+00  0.00000000E+00
  0.28445000E+01  0.44282676E+00  0.44282676E+00  0.44282676E+00  0.00000000E+00  0.00000000E+00  0.00000000E+00
  0.28582000E+01  0.45032178E+00  0.45032178E+00  0.45032178E+00  0.00000000E+00  0.00000000E+00  0.00000000E+00
  0.28720000E+01  0.46008131E+00  0.46008131E+00  0.46008131E+00  0.00000000E+00  0.00000000E+00  0.00000000E+00
  0.28857000E+01  0.47340937E+00  0.47340937E+00  0.47340937E+00  0.00000000E+00  0.00000000E+00  0.00000000E+00
  0.28995000E+01  0.49127216E+00  0.49127216E+00  0.49127216E+00  0.00000000E+00  0.00000000E+00  0.00000000E+00
  0.29132000E+01  0.51469882E+00  0.51469882E+00  0.51469882E+00  0.00000000E+00  0.00000000E+00  0.00000000E+00
  0.29270000E+01  0.54427096E+00  0.54427096E+00  0.54427096E+00  0.00000000E+00  0.00000000E+00  0.00000000E+00
  0.29407000E+01  0.58062388E+00  0.58062388E+00  0.58062388E+00  0.00000000E+00  0.00000000E+00  0.00000000E+00
  0.29545000E+01  0.62384104E+00  0.62384104E+00  0.62384104E+00  0.00000000E+00  0.00000000E+00  0.00000000E+00
  0.29682000E+01  0.67408336E+00  0.67408336E+00  0.67408336E+00  0.00000000E+00  0.00000000E+00  0.00000000E+00
  0.29820000E+01  0.73077421E+00  0.73077421E+00  0.73077421E+00  0.00000000E+00  0.00000000E+00  0.00000000E+00
  0.29957000E+01  0.79336594E+00  0.79336594E+00  0.79336594E+00  0.00000000E+00  0.00000000E+00  0.00000000E+00
  0.30095000E+01  0.86031098E+00  0.86031098E+00  0.86031098E+00  0.00000000E+00  0.00000000E+00  0.00000000E+00
  0.30232000E+01  0.93000435E+00  0.93000435E+00  0.93000435E+00  0.00000000E+00  0.00000000E+00  0.00000000E+00
  0.30370000E+01  0.99969533E+00  0.99969533E+00  0.99969533E+00  0.00000000E+00  0.00000000E+00  0.00000000E+00
  0.30507000E+01  0.10668903E+01  0.10668903E+01  0.10668903E+01  0.00000000E+00  0.00000000E+00  0.00000000E+00
  0.30644000E+01  0.11281503E+01  0.11281503E+01  0.11281503E+01  0.00000000E+00  0.00000000E+00  0.00000000E+00
  0.30782000E+01  0.11800646E+01  0.11800646E+01  0.11800646E+01  0.00000000E+00  0.00000000E+00  0.00000000E+00
  0.30919000E+01  0.12206341E+01  0.12206341E+01  0.12206341E+01  0.00000000E+00  0.00000000E+00  0.00000000E+00
  0.31057000E+01  0.12478674E+01  0.12478674E+01  0.12478674E+01  0.00000000E+00  0.00000000E+00  0.00000000E+00
  0.31194000E+01  0.12620235E+01  0.12620235E+01  0.12620235E+01  0.00000000E+00  0.00000000E+00  0.00000000E+00
  0.31332000E+01  0.12636644E+01  0.12636644E+01  0.12636644E+01  0.00000000E+00  0.00000000E+00  0.00000000E+00
  0.31469000E+01  0.12557305E+01  0.12557305E+01  0.12557305E+01  0.00000000E+00  0.00000000E+00  0.00000000E+00
  0.31607000E+01  0.12406365E+01  0.12406365E+01  0.12406365E+01  0.00000000E+00  0.00000000E+00  0.00000000E+00
  0.31744000E+01  0.12223613E+01  0.12223613E+01  0.12223613E+01  0.00000000E+00  0.00000000E+00  0.00000000E+00
  0.31882000E+01  0.12030960E+01  0.12030960E+01  0.12030960E+01  0.00000000E+00  0.00000000E+00  0.00000000E+00
  0.32019000E+01  0.11857004E+01  0.11857004E+01  0.11857004E+01  0.00000000E+00  0.00000000E+00  0.00000000E+00
  0.32157000E+01  0.11705712E+01  0.11705712E+01  0.11705712E+01  0.00000000E+00  0.00000000E+00  0.00000000E+00
  0.32294000E+01  0.11587909E+01  0.11587909E+01  0.11587909E+01  0.00000000E+00  0.00000000E+00  0.00000000E+00
  0.32432000E+01  0.11492350E+01  0.11492350E+01  0.11492350E+01  0.00000000E+00  0.00000000E+00  0.00000000E+00
  0.32569000E+01  0.11422027E+01  0.11422027E+01  0.11422027E+01  0.00000000E+00  0.00000000E+00  0.00000000E+00
  0.32706000E+01  0.11365404E+01  0.11365404E+01  0.11365404E+01  0.00000000E+00  0.00000000E+00  0.00000000E+00
  0.32844000E+01  0.11312759E+01  0.11312759E+01  0.11312759E+01  0.00000000E+00  0.00000000E+00  0.00000000E+00
  0.32981000E+01  0.11271616E+01  0.11271616E+01  0.11271616E+01  0.00000000E+00  0.00000000E+00  0.00000000E+00
  0.33119000E+01  0.11233266E+01  0.11233266E+01  0.11233266E+01  0.00000000E+00  0.00000000E+00  0.00000000E+00
  0.33256000E+01  0.11207302E+01  0.11207302E+01  0.11207302E+01  0.00000000E+00  0.00000000E+00  0.00000000E+00
